10.00186 80.000
10.01603 86.000
10.03020 88.000
10.04437 75.000
10.05854 84.000
10.07271 88.000
10.08688 102.000
10.10105 83.000
10.11522 85.000
10.12939 104.000
10.14356 104.000
10.15773 98.000
10.17190 102.000
10.18607 108.000
10.20024 92.000
10.21441 95.000
10.22858 94.000
10.24275 85.000
10.25692 114.000
10.27109 83.000
10.28526 96.000
10.29943 82.000
10.31360 109.000
10.32777 101.000
10.34194 107.000
10.35611 105.000
10.37028 80.000
10.38445 130.000
10.39862 90.000
10.41279 84.000
10.42696 98.000
10.44113 106.000
10.45530 105.000
10.46947 90.000
10.48364 86.000
10.49780 95.000
10.51197 88.000
10.52614 85.000
10.54031 112.000
10.55448 95.000
10.56865 68.000
10.58282 108.000
10.59699 87.000
10.61116 76.000
10.62533 91.000
10.63950 79.000
10.65367 88.000
10.66784 74.000
10.68201 96.000
10.69618 87.000
10.71035 73.000
10.72452 92.000
10.73869 96.000
10.75286 105.000
10.76703 93.000
10.78120 95.000
10.79537 96.000
10.80954 97.000
10.82371 90.000
10.83788 90.000
10.85205 111.000
10.86622 96.000
10.88039 88.000
10.89456 88.000
10.90873 93.000
10.92290 86.000
10.93707 96.000
10.95124 96.000
10.96541 83.000
10.97958 76.000
10.99375 86.000
11.00792 99.000
11.02209 96.000
11.03626 76.000
11.05043 94.000
11.06460 97.000
11.07877 85.000
11.09294 87.000
11.10711 116.000
11.12128 80.000
11.13545 114.000
11.14962 105.000
11.16379 84.000
11.17796 89.000
11.19213 96.000
11.20630 112.000
11.22047 83.000
11.23464 101.000
11.24881 87.000
11.26298 78.000
11.27715 107.000
11.29132 85.000
11.30549 90.000
11.31966 75.000
11.33383 93.000
11.34800 98.000
11.36217 102.000
11.37634 96.000
11.39051 93.000
11.40468 83.000
11.41885 85.000
11.43302 98.000
11.44719 106.000
11.46136 89.000
11.47553 75.000
11.48970 101.000
11.50387 82.000
11.51804 110.000
11.53221 109.000
11.54638 94.000
11.56055 104.000
11.57472 89.000
11.58889 105.000
11.60306 100.000
11.61723 92.000
11.63140 102.000
11.64557 106.000
11.65974 80.000
11.67391 90.000
11.68808 84.000
11.70225 89.000
11.71642 103.000
11.73059 100.000
11.74476 108.000
11.75893 91.000
11.77310 100.000
11.78727 81.000
11.80144 110.000
11.81561 95.000
11.82978 105.000
11.84395 121.000
11.85812 88.000
11.87229 95.000
11.88646 109.000
11.90063 82.000
11.91480 109.000
11.92897 115.000
11.94314 105.000
11.95731 103.000
11.97148 103.000
11.98565 111.000
11.99982 96.000
12.01399 103.000
12.02816 107.000
12.04233 108.000
12.05650 124.000
12.07067 110.000
12.08484 110.000
12.09901 91.000
12.11318 102.000
12.12735 93.000
12.14152 88.000
12.15569 104.000
12.16986 100.000
12.18403 90.000
12.19820 96.000
12.21237 100.000
12.22654 87.000
12.24071 110.000
12.25488 113.000
12.26905 88.000
12.28322 104.000
12.29739 99.000
12.31156 76.000
12.32573 105.000
12.33990 98.000
12.35407 94.000
12.36824 92.000
12.38241 112.000
12.39658 111.000
12.41075 113.000
12.42492 118.000
12.43909 104.000
12.45326 96.000
12.46743 97.000
12.48160 102.000
12.49577 97.000
12.50994 118.000
12.52411 102.000
12.53828 110.000
12.55245 98.000
12.56662 104.000
12.58079 91.000
12.59496 117.000
12.60913 97.000
12.62330 98.000
12.63747 91.000
12.65164 95.000
12.66581 118.000
12.67998 99.000
12.69415 98.000
12.70832 92.000
12.72249 96.000
12.73666 85.000
12.75083 109.000
12.76500 97.000
12.77917 120.000
12.79334 100.000
12.80751 122.000
12.82168 94.000
12.83585 90.000
12.85002 81.000
12.86419 108.000
12.87836 96.000
12.89253 97.000
12.90670 90.000
12.92087 95.000
12.93504 89.000
12.94921 96.000
12.96338 103.000
12.97755 84.000
12.99172 112.000
13.00589 108.000
13.02006 103.000
13.03423 102.000
13.04840 106.000
13.06257 102.000
13.07674 115.000
13.09091 85.000
13.10508 110.000
13.11925 110.000
13.13342 105.000
13.14759 99.000
13.16176 98.000
13.17593 75.000
13.19010 86.000
13.20427 113.000
13.21844 102.000
13.23261 99.000
13.24678 94.000
13.26095 109.000
13.27512 95.000
13.28929 103.000
13.30346 85.000
13.31763 92.000
13.33180 86.000
13.34597 88.000
13.36014 99.000
13.37431 114.000
13.38848 86.000
13.40265 98.000
13.41682 91.000
13.43099 113.000
13.44516 98.000
13.45933 90.000
13.47350 88.000
13.48767 104.000
13.50184 101.000
13.51601 97.000
13.53018 102.000
13.54435 110.000
13.55852 111.000
13.57269 124.000
13.58686 94.000
13.60103 106.000
13.61520 120.000
13.62937 101.000
13.64354 125.000
13.65771 104.000
13.67188 108.000
13.68605 107.000
13.70022 93.000
13.71439 113.000
13.72856 93.000
13.74273 99.000
13.75690 105.000
13.77107 110.000
13.78524 121.000
13.79941 97.000
13.81358 125.000
13.82775 105.000
13.84192 106.000
13.85609 87.000
13.87026 93.000
13.88443 102.000
13.89860 100.000
13.91277 113.000
13.92694 113.000
13.94111 102.000
13.95528 115.000
13.96945 87.000
13.98362 102.000
13.99779 112.000
14.01196 106.000
14.02613 109.000
14.04030 106.000
14.05447 113.000
14.06864 112.000
14.08281 106.000
14.09698 110.000
14.11115 98.000
14.12532 106.000
14.13949 96.000
14.15366 114.000
14.16783 105.000
14.18200 110.000
14.19617 117.000
14.21034 90.000
14.22451 125.000
14.23868 105.000
14.25285 98.000
14.26702 87.000
14.28119 108.000
14.29536 112.000
14.30953 74.000
14.32370 111.000
14.33787 91.000
14.35204 99.000
14.36621 98.000
14.38038 103.000
14.39455 120.000
14.40872 93.000
14.42289 111.000
14.43706 120.000
14.45123 93.000
14.46540 102.000
14.47957 115.000
14.49374 103.000
14.50791 93.000
14.52208 125.000
14.53625 98.000
14.55042 105.000
14.56459 98.000
14.57876 92.000
14.59293 94.000
14.60710 103.000
14.62127 102.000
14.63544 96.000
14.64961 113.000
14.66378 114.000
14.67795 106.000
14.69212 107.000
14.70629 102.000
14.72046 109.000
14.73463 113.000
14.74880 132.000
14.76297 115.000
14.77714 107.000
14.79131 108.000
14.80548 131.000
14.81965 118.000
14.83382 109.000
14.84799 105.000
14.86216 114.000
14.87633 115.000
14.89050 125.000
14.90467 104.000
14.91884 122.000
14.93301 116.000
14.94718 103.000
14.96135 96.000
14.97552 97.000
14.98969 115.000
15.00386 85.000
15.01803 111.000
15.03220 102.000
15.04637 114.000
15.06054 114.000
15.07471 112.000
15.08888 101.000
15.10305 109.000
15.11722 109.000
15.13139 122.000
15.14556 83.000
15.15973 116.000
15.17390 114.000
15.18807 92.000
15.20224 110.000
15.21641 109.000
15.23058 101.000
15.24475 86.000
15.25892 123.000
15.27309 106.000
15.28726 99.000
15.30143 107.000
15.31560 114.000
15.32977 95.000
15.34394 123.000
15.35811 103.000
15.37228 101.000
15.38645 100.000
15.40062 105.000
15.41479 107.000
15.42896 123.000
15.44313 122.000
15.45730 116.000
15.47147 120.000
15.48564 111.000
15.49981 109.000
15.51398 125.000
15.52815 118.000
15.54232 87.000
15.55649 105.000
15.57066 120.000
15.58483 105.000
15.59900 105.000
15.61317 100.000
15.62734 117.000
15.64151 96.000
15.65568 112.000
15.66985 89.000
15.68402 110.000
15.69819 108.000
15.71236 100.000
15.72653 112.000
15.74070 93.000
15.75487 119.000
15.76904 113.000
15.78321 129.000
15.79738 121.000
15.81155 114.000
15.82572 113.000
15.83989 122.000
15.85406 108.000
15.86823 109.000
15.88240 112.000
15.89657 97.000
15.91074 118.000
15.92491 96.000
15.93908 108.000
15.95325 113.000
15.96742 112.000
15.98159 125.000
15.99576 110.000
16.00993 113.000
16.02410 132.000
16.03827 99.000
16.05244 106.000
16.06661 100.000
16.08078 115.000
16.09495 102.000
16.10912 122.000
16.12329 99.000
16.13746 113.000
16.15163 123.000
16.16580 102.000
16.17997 112.000
16.19413 118.000
16.20830 106.000
16.22247 102.000
16.23664 91.000
16.25081 115.000
16.26498 99.000
16.27915 120.000
16.29332 79.000
16.30749 123.000
16.32166 107.000
16.33583 117.000
16.35000 111.000
16.36417 103.000
16.37834 90.000
16.39251 90.000
16.40668 109.000
16.42085 112.000
16.43502 108.000
16.44919 115.000
16.46336 116.000
16.47753 97.000
16.49170 115.000
16.50587 108.000
16.52004 103.000
16.53421 110.000
16.54838 118.000
16.56255 100.000
16.57672 107.000
16.59089 81.000
16.60506 129.000
16.61923 106.000
16.63340 99.000
16.64757 107.000
16.66174 113.000
16.67591 99.000
16.69008 103.000
16.70425 97.000
16.71842 92.000
16.73259 113.000
16.74676 114.000
16.76093 120.000
16.77510 113.000
16.78927 101.000
16.80344 116.000
16.81761 110.000
16.83178 143.000
16.84595 109.000
16.86012 105.000
16.87429 103.000
16.88846 104.000
16.90263 110.000
16.91680 123.000
16.93097 112.000
16.94514 103.000
16.95931 124.000
16.97348 132.000
16.98765 118.000
17.00182 98.000
17.01599 112.000
17.03016 120.000
17.04433 104.000
17.05850 103.000
17.07267 100.000
17.08684 113.000
17.10101 126.000
17.11518 124.000
17.12935 112.000
17.14352 98.000
17.15769 105.000
17.17186 102.000
17.18603 119.000
17.20020 104.000
17.21437 112.000
17.22854 124.000
17.24271 91.000
17.25688 124.000
17.27105 121.000
17.28522 107.000
17.29939 100.000
17.31356 111.000
17.32773 116.000
17.34190 105.000
17.35607 107.000
17.37024 101.000
17.38441 114.000
17.39858 103.000
17.41275 112.000
17.42692 114.000
17.44109 127.000
17.45526 87.000
17.46943 118.000
17.48360 109.000
17.49777 123.000
17.51194 89.000
17.52611 129.000
17.54028 112.000
17.55445 113.000
17.56862 110.000
17.58279 111.000
17.59696 120.000
17.61113 105.000
17.62530 119.000
17.63947 109.000
17.65364 130.000
17.66781 112.000
17.68198 126.000
17.69615 119.000
17.71032 119.000
17.72449 118.000
17.73866 107.000
17.75283 109.000
17.76700 118.000
17.78117 105.000
17.79534 99.000
17.80951 109.000
17.82368 94.000
17.83785 101.000
17.85202 115.000
17.86619 111.000
17.88036 101.000
17.89453 117.000
17.90870 110.000
17.92287 120.000
17.93704 114.000
17.95121 105.000
17.96538 133.000
17.97955 119.000
17.99372 115.000
18.00789 95.000
18.02206 106.000
18.03623 98.000
18.05040 105.000
18.06457 98.000
18.07874 96.000
18.09291 114.000
18.10708 100.000
18.12125 100.000
18.13542 111.000
18.14959 138.000
18.16376 156.000
18.17793 123.000
18.19210 110.000
18.20627 121.000
18.22044 105.000
18.23461 112.000
18.24878 134.000
18.26295 115.000
18.27712 126.000
18.29129 128.000
18.30546 120.000
18.31963 114.000
18.33380 127.000
18.34797 117.000
18.36214 107.000
18.37631 109.000
18.39048 112.000
18.40465 129.000
18.41882 134.000
18.43299 121.000
18.44716 116.000
18.46133 112.000
18.47550 119.000
18.48967 118.000
18.50384 104.000
18.51801 86.000
18.53218 125.000
18.54635 133.000
18.56052 120.000
18.57469 105.000
18.58886 127.000
18.60303 98.000
18.61720 109.000
18.63137 134.000
18.64554 104.000
18.65971 124.000
18.67388 116.000
18.68805 103.000
18.70222 107.000
18.71639 102.000
18.73056 103.000
18.74473 108.000
18.75890 111.000
18.77307 116.000
18.78724 121.000
18.80141 123.000
18.81558 121.000
18.82975 105.000
18.84392 87.000
18.85809 85.000
18.87226 104.000
18.88643 107.000
18.90060 116.000
18.91477 113.000
18.92894 113.000
18.94311 127.000
18.95728 110.000
18.97145 114.000
18.98562 116.000
18.99979 113.000
19.01396 101.000
19.02813 99.000
19.04230 89.000
19.05647 117.000
19.07064 100.000
19.08481 106.000
19.09898 113.000
19.11315 97.000
19.12732 113.000
19.14149 114.000
19.15566 109.000
19.16983 103.000
19.18400 99.000
19.19817 119.000
19.21234 99.000
19.22651 114.000
19.24068 131.000
19.25485 130.000
19.26902 123.000
19.28319 92.000
19.29736 121.000
19.31153 109.000
19.32570 130.000
19.33987 109.000
19.35404 127.000
19.36821 124.000
19.38238 112.000
19.39655 113.000
19.41072 103.000
19.42489 106.000
19.43906 110.000
19.45323 113.000
19.46740 104.000
19.48157 120.000
19.49574 115.000
19.50991 102.000
19.52408 119.000
19.53825 108.000
19.55242 112.000
19.56659 109.000
19.58076 124.000
19.59493 108.000
19.60910 111.000
19.62327 113.000
19.63744 118.000
19.65161 107.000
19.66578 109.000
19.67995 103.000
19.69412 101.000
19.70829 121.000
19.72246 110.000
19.73663 118.000
19.75080 105.000
19.76497 127.000
19.77914 96.000
19.79331 117.000
19.80748 131.000
19.82165 111.000
19.83582 125.000
19.84999 130.000
19.86416 98.000
19.87833 123.000
19.89250 104.000
19.90667 115.000
19.92084 113.000
19.93501 110.000
19.94918 104.000
19.96335 121.000
19.97752 118.000
19.99169 104.000
20.00586 96.000
20.02003 112.000
20.03420 104.000
20.04837 113.000
20.06254 123.000
20.07671 115.000
20.09088 102.000
20.10505 99.000
20.11922 102.000
20.13339 105.000
20.14756 87.000
20.16173 103.000
20.17590 107.000
20.19007 112.000
20.20424 115.000
20.21841 70.000
20.23258 106.000
20.24675 95.000
20.26092 116.000
20.27509 109.000
20.28926 108.000
20.30343 98.000
20.31760 105.000
20.33177 103.000
20.34594 105.000
20.36011 122.000
20.37428 93.000
20.38845 114.000
20.40262 85.000
20.41679 102.000
20.43096 102.000
20.44513 87.000
20.45930 109.000
20.47347 114.000
20.48764 139.000
20.50181 123.000
20.51598 118.000
20.53015 111.000
20.54432 101.000
20.55849 116.000
20.57266 113.000
20.58683 109.000
20.60100 89.000
20.61517 111.000
20.62934 107.000
20.64351 103.000
20.65768 94.000
20.67185 96.000
20.68602 133.000
20.70019 107.000
20.71436 129.000
20.72853 101.000
20.74270 117.000
20.75687 101.000
20.77104 97.000
20.78521 112.000
20.79938 123.000
20.81355 120.000
20.82772 98.000
20.84189 117.000
20.85606 100.000
20.87023 99.000
20.88440 112.000
20.89857 115.000
20.91274 105.000
20.92691 110.000
20.94108 124.000
20.95525 113.000
20.96942 112.000
20.98359 108.000
20.99776 110.000
21.01193 108.000
21.02610 114.000
21.04027 107.000
21.05444 132.000
21.06861 87.000
21.08278 84.000
21.09695 96.000
21.11112 119.000
21.12529 112.000
21.13946 104.000
21.15363 110.000
21.16780 92.000
21.18197 126.000
21.19614 130.000
21.21031 96.000
21.22448 116.000
21.23865 110.000
21.25282 104.000
21.26699 98.000
21.28116 120.000
21.29533 105.000
21.30950 101.000
21.32367 93.000
21.33784 111.000
21.35201 108.000
21.36618 111.000
21.38035 99.000
21.39452 129.000
21.40869 108.000
21.42286 124.000
21.43703 110.000
21.45120 91.000
21.46537 96.000
21.47954 92.000
21.49371 113.000
21.50788 119.000
21.52205 115.000
21.53622 120.000
21.55039 116.000
21.56456 115.000
21.57873 103.000
21.59290 111.000
21.60707 115.000
21.62124 101.000
21.63541 129.000
21.64958 103.000
21.66375 118.000
21.67792 115.000
21.69209 116.000
21.70626 124.000
21.72043 118.000
21.73460 113.000
21.74877 117.000
21.76294 100.000
21.77711 109.000
21.79128 98.000
21.80545 127.000
21.81962 124.000
21.83379 120.000
21.84796 118.000
21.86213 114.000
21.87629 97.000
21.89046 113.000
21.90463 134.000
21.91880 102.000
21.93297 102.000
21.94714 125.000
21.96131 93.000
21.97548 97.000
21.98965 120.000
22.00382 108.000
22.01799 125.000
22.03216 97.000
22.04633 111.000
22.06050 122.000
22.07467 107.000
22.08884 114.000
22.10301 114.000
22.11718 116.000
22.13135 92.000
22.14552 96.000
22.15969 99.000
22.17386 118.000
22.18803 122.000
22.20220 89.000
22.21637 95.000
22.23054 113.000
22.24471 113.000
22.25888 111.000
22.27305 91.000
22.28722 123.000
22.30139 104.000
22.31556 112.000
22.32973 105.000
22.34390 103.000
22.35807 102.000
22.37224 98.000
22.38641 106.000
22.40058 107.000
22.41475 111.000
22.42892 105.000
22.44309 121.000
22.45726 100.000
22.47143 101.000
22.48560 107.000
22.49977 104.000
22.51394 109.000
22.52811 108.000
22.54228 118.000
22.55645 101.000
22.57062 120.000
22.58479 90.000
22.59896 103.000
22.61313 122.000
22.62730 103.000
22.64147 124.000
22.65564 119.000
22.66981 105.000
22.68398 113.000
22.69815 88.000
22.71232 116.000
22.72649 108.000
22.74066 125.000
22.75483 106.000
22.76900 106.000
22.78317 103.000
22.79734 120.000
22.81151 115.000
22.82568 109.000
22.83985 130.000
22.85402 100.000
22.86819 111.000
22.88236 107.000
22.89653 124.000
22.91070 104.000
22.92487 110.000
22.93904 130.000
22.95321 107.000
22.96738 112.000
22.98155 101.000
22.99572 137.000
23.00989 111.000
23.02406 113.000
23.03823 131.000
23.05240 131.000
23.06657 122.000
23.08074 118.000
23.09491 124.000
23.10908 102.000
23.12325 120.000
23.13742 96.000
23.15159 109.000
23.16576 104.000
23.17993 114.000
23.19410 94.000
23.20827 96.000
23.22244 105.000
23.23661 116.000
23.25078 103.000
23.26495 112.000
23.27912 122.000
23.29329 116.000
23.30746 122.000
23.32163 106.000
23.33580 97.000
23.34997 105.000
23.36414 107.000
23.37831 133.000
23.39248 100.000
23.40665 99.000
23.42082 109.000
23.43499 100.000
23.44916 115.000
23.46333 128.000
23.47750 112.000
23.49167 105.000
23.50584 90.000
23.52001 95.000
23.53418 131.000
23.54835 128.000
23.56252 95.000
23.57669 106.000
23.59086 108.000
23.60503 98.000
23.61920 116.000
23.63337 97.000
23.64754 92.000
23.66171 101.000
23.67588 106.000
23.69005 111.000
23.70422 104.000
23.71839 116.000
23.73256 98.000
23.74673 120.000
23.76090 113.000
23.77507 100.000
23.78924 100.000
23.80341 115.000
23.81758 119.000
23.83175 125.000
23.84592 94.000
23.86009 117.000
23.87426 107.000
23.88843 112.000
23.90260 96.000
23.91677 110.000
23.93094 103.000
23.94511 106.000
23.95928 91.000
23.97345 109.000
23.98762 95.000
24.00179 105.000
24.01596 84.000
24.03013 96.000
24.04430 96.000
24.05847 112.000
24.07264 112.000
24.08681 117.000
24.10098 134.000
24.11515 95.000
24.12932 106.000
24.14349 108.000
24.15766 135.000
24.17183 123.000
24.18600 124.000
24.20017 115.000
24.21434 107.000
24.22851 108.000
24.24268 128.000
24.25685 123.000
24.27102 105.000
24.28519 116.000
24.29936 106.000
24.31353 107.000
24.32770 105.000
24.34187 126.000
24.35604 124.000
24.37021 122.000
24.38438 106.000
24.39855 106.000
24.41272 107.000
24.42689 114.000
24.44106 109.000
24.45523 122.000
24.46940 116.000
24.48357 115.000
24.49774 118.000
24.51191 116.000
24.52608 96.000
24.54025 125.000
24.55442 122.000
24.56859 117.000
24.58276 108.000
24.59693 123.000
24.61110 117.000
24.62527 128.000
24.63944 124.000
24.65361 114.000
24.66778 165.000
24.68195 133.000
24.69612 146.000
24.71029 170.000
24.72446 134.000
24.73863 149.000
24.75280 164.000
24.76697 131.000
24.78114 143.000
24.79531 163.000
24.80948 136.000
24.82365 139.000
24.83782 128.000
24.85199 149.000
24.86616 164.000
24.88033 154.000
24.89450 137.000
24.90867 158.000
24.92284 170.000
24.93701 150.000
24.95118 173.000
24.96535 170.000
24.97952 167.000
24.99369 170.000
25.00786 208.000
25.02203 156.000
25.03620 186.000
25.05037 194.000
25.06454 198.000
25.07871 220.000
25.09288 197.000
25.10705 216.000
25.12122 199.000
25.13539 213.000
25.14956 222.000
25.16373 229.000
25.17790 263.000
25.19207 269.000
25.20624 270.000
25.22041 305.000
25.23458 293.000
25.24875 302.000
25.26292 311.000
25.27709 350.000
25.29126 350.000
25.30543 396.000
25.31960 392.000
25.33377 458.000
25.34794 541.000
25.36211 537.000
25.37628 591.000
25.39045 691.000
25.40462 805.000
25.41879 937.000
25.43296 1044.000
25.44713 1173.000
25.46130 1483.000
25.47547 1732.000
25.48964 2106.000
25.50381 2459.000
25.51798 3100.000
25.53215 3672.000
25.54632 4487.000
25.56049 4781.000
25.57466 5094.000
25.58883 4793.000
25.60300 4431.000
25.61717 3970.000
25.63134 3460.000
25.64551 3176.000
25.65968 2454.000
25.67385 2021.000
25.68802 1597.000
25.70219 1340.000
25.71636 1124.000
25.73053 866.000
25.74470 788.000
25.75887 650.000
25.77304 584.000
25.78721 552.000
25.80138 480.000
25.81555 472.000
25.82972 432.000
25.84389 411.000
25.85806 382.000
25.87223 353.000
25.88640 309.000
25.90057 337.000
25.91474 280.000
25.92891 302.000
25.94308 279.000
25.95725 232.000
25.97142 262.000
25.98559 252.000
25.99976 245.000
26.01393 230.000
26.02810 191.000
26.04227 185.000
26.05644 208.000
26.07061 187.000
26.08478 191.000
26.09895 149.000
26.11312 195.000
26.12729 193.000
26.14146 157.000
26.15563 177.000
26.16980 171.000
26.18397 148.000
26.19814 162.000
26.21231 178.000
26.22648 157.000
26.24065 144.000
26.25482 152.000
26.26899 144.000
26.28316 165.000
26.29733 148.000
26.31150 143.000
26.32567 142.000
26.33984 162.000
26.35401 149.000
26.36818 155.000
26.38235 129.000
26.39652 147.000
26.41069 131.000
26.42486 139.000
26.43903 133.000
26.45320 151.000
26.46737 156.000
26.48154 157.000
26.49571 119.000
26.50988 122.000
26.52405 153.000
26.53822 131.000
26.55239 137.000
26.56656 149.000
26.58073 125.000
26.59490 142.000
26.60907 133.000
26.62324 130.000
26.63741 138.000
26.65158 132.000
26.66575 118.000
26.67992 117.000
26.69409 119.000
26.70826 132.000
26.72243 133.000
26.73660 145.000
26.75077 143.000
26.76494 121.000
26.77911 120.000
26.79328 137.000
26.80745 115.000
26.82162 136.000
26.83579 132.000
26.84996 122.000
26.86413 113.000
26.87830 128.000
26.89247 134.000
26.90664 140.000
26.92081 145.000
26.93498 131.000
26.94915 128.000
26.96332 126.000
26.97749 144.000
26.99166 140.000
27.00583 124.000
27.02000 105.000
27.03417 122.000
27.04834 104.000
27.06251 110.000
27.07668 114.000
27.09085 98.000
27.10502 113.000
27.11919 104.000
27.13336 121.000
27.14753 108.000
27.16170 130.000
27.17587 127.000
27.19004 134.000
27.20421 132.000
27.21838 113.000
27.23255 130.000
27.24672 132.000
27.26089 127.000
27.27506 102.000
27.28923 119.000
27.30340 113.000
27.31757 118.000
27.33174 107.000
27.34591 125.000
27.36008 106.000
27.37425 111.000
27.38842 132.000
27.40259 109.000
27.41676 137.000
27.43093 111.000
27.44510 132.000
27.45927 98.000
27.47344 128.000
27.48761 110.000
27.50178 120.000
27.51595 105.000
27.53012 121.000
27.54429 146.000
27.55846 127.000
27.57262 116.000
27.58679 130.000
27.60096 137.000
27.61513 132.000
27.62930 134.000
27.64347 121.000
27.65764 118.000
27.67181 122.000
27.68598 137.000
27.70015 120.000
27.71432 131.000
27.72849 120.000
27.74266 118.000
27.75683 134.000
27.77100 134.000
27.78517 124.000
27.79934 115.000
27.81351 124.000
27.82768 117.000
27.84185 125.000
27.85602 133.000
27.87019 129.000
27.88436 131.000
27.89853 126.000
27.91270 123.000
27.92687 128.000
27.94104 121.000
27.95521 116.000
27.96938 103.000
27.98355 126.000
27.99772 132.000
28.01189 108.000
28.02606 146.000
28.04023 139.000
28.05440 127.000
28.06857 135.000
28.08274 119.000
28.09691 152.000
28.11108 148.000
28.12525 144.000
28.13942 159.000
28.15359 147.000
28.16776 144.000
28.18193 162.000
28.19610 113.000
28.21027 161.000
28.22444 160.000
28.23861 162.000
28.25278 148.000
28.26695 163.000
28.28112 212.000
28.29529 221.000
28.30946 250.000
28.32363 291.000
28.33780 305.000
28.35197 397.000
28.36614 515.000
28.38031 650.000
28.39448 960.000
28.40865 1461.000
28.42282 2188.000
28.43699 2645.000
28.45116 2291.000
28.46533 1755.000
28.47950 1426.000
28.49367 1401.000
28.50784 1555.000
28.52201 1317.000
28.53618 964.000
28.55035 571.000
28.56452 397.000
28.57869 270.000
28.59286 244.000
28.60703 208.000
28.62120 196.000
28.63537 200.000
28.64954 191.000
28.66371 177.000
28.67788 179.000
28.69205 173.000
28.70622 160.000
28.72039 157.000
28.73456 147.000
28.74873 138.000
28.76290 141.000
28.77707 127.000
28.79124 138.000
28.80541 116.000
28.81958 139.000
28.83375 111.000
28.84792 122.000
28.86209 147.000
28.87626 111.000
28.89043 116.000
28.90460 107.000
28.91877 123.000
28.93294 111.000
28.94711 119.000
28.96128 119.000
28.97545 100.000
28.98962 112.000
29.00379 127.000
29.01796 126.000
29.03213 114.000
29.04630 122.000
29.06047 129.000
29.07464 118.000
29.08881 117.000
29.10298 139.000
29.11715 105.000
29.13132 110.000
29.14549 109.000
29.15966 119.000
29.17383 103.000
29.18800 120.000
29.20217 112.000
29.21634 111.000
29.23051 120.000
29.24468 116.000
29.25885 138.000
29.27302 101.000
29.28719 111.000
29.30136 114.000
29.31553 118.000
29.32970 121.000
29.34387 120.000
29.35804 136.000
29.37221 121.000
29.38638 99.000
29.40055 118.000
29.41472 103.000
29.42889 109.000
29.44306 86.000
29.45723 100.000
29.47140 123.000
29.48557 135.000
29.49974 99.000
29.51391 108.000
29.52808 84.000
29.54225 120.000
29.55642 99.000
29.57059 121.000
29.58476 113.000
29.59893 107.000
29.61310 106.000
29.62727 121.000
29.64144 100.000
29.65561 113.000
29.66978 124.000
29.68395 108.000
29.69812 102.000
29.71229 114.000
29.72646 108.000
29.74063 99.000
29.75480 104.000
29.76897 112.000
29.78314 114.000
29.79731 99.000
29.81148 106.000
29.82565 95.000
29.83982 113.000
29.85399 121.000
29.86816 87.000
29.88233 132.000
29.89650 108.000
29.91067 94.000
29.92484 111.000
29.93901 108.000
29.95318 109.000
29.96735 108.000
29.98152 96.000
29.99569 100.000
30.00986 103.000
30.02403 122.000
30.03820 106.000
30.05237 108.000
30.06654 120.000
30.08071 92.000
30.09488 101.000
30.10905 113.000
30.12322 114.000
30.13739 127.000
30.15156 109.000
30.16573 97.000
30.17990 84.000
30.19407 114.000
30.20824 121.000
30.22241 102.000
30.23658 132.000
30.25075 83.000
30.26492 94.000
30.27909 114.000
30.29326 120.000
30.30743 101.000
30.32160 95.000
30.33577 103.000
30.34994 110.000
30.36411 113.000
30.37828 97.000
30.39245 97.000
30.40662 110.000
30.42079 123.000
30.43496 115.000
30.44913 133.000
30.46330 131.000
30.47747 111.000
30.49164 122.000
30.50581 108.000
30.51998 110.000
30.53415 123.000
30.54832 127.000
30.56249 114.000
30.57666 97.000
30.59083 106.000
30.60500 122.000
30.61917 104.000
30.63334 105.000
30.64751 119.000
30.66168 111.000
30.67585 112.000
30.69002 108.000
30.70419 95.000
30.71836 122.000
30.73253 91.000
30.74670 99.000
30.76087 108.000
30.77504 106.000
30.78921 90.000
30.80338 115.000
30.81755 99.000
30.83172 115.000
30.84589 94.000
30.86006 91.000
30.87423 93.000
30.88840 119.000
30.90257 100.000
30.91674 107.000
30.93091 103.000
30.94508 94.000
30.95925 94.000
30.97342 101.000
30.98759 81.000
31.00176 101.000
31.01593 85.000
31.03010 109.000
31.04427 79.000
31.05844 100.000
31.07261 99.000
31.08678 86.000
31.10095 105.000
31.11512 90.000
31.12929 95.000
31.14346 97.000
31.15763 110.000
31.17180 105.000
31.18597 91.000
31.20014 101.000
31.21431 92.000
31.22848 93.000
31.24265 98.000
31.25682 94.000
31.27099 136.000
31.28516 107.000
31.29933 97.000
31.31350 98.000
31.32767 81.000
31.34184 104.000
31.35601 113.000
31.37018 94.000
31.38435 104.000
31.39852 97.000
31.41269 90.000
31.42686 116.000
31.44103 96.000
31.45520 76.000
31.46937 90.000
31.48354 96.000
31.49771 101.000
31.51188 123.000
31.52605 110.000
31.54022 110.000
31.55439 113.000
31.56856 122.000
31.58273 87.000
31.59690 121.000
31.61107 109.000
31.62524 103.000
31.63941 95.000
31.65358 133.000
31.66775 115.000
31.68192 113.000
31.69609 112.000
31.71026 101.000
31.72443 103.000
31.73860 97.000
31.75277 115.000
31.76694 94.000
31.78111 110.000
31.79528 107.000
31.80945 102.000
31.82362 106.000
31.83779 89.000
31.85196 106.000
31.86613 78.000
31.88030 94.000
31.89447 84.000
31.90864 95.000
31.92281 129.000
31.93698 112.000
31.95115 115.000
31.96532 94.000
31.97949 104.000
31.99366 111.000
32.00783 104.000
32.02200 111.000
32.03617 85.000
32.05034 105.000
32.06451 91.000
32.07868 106.000
32.09285 100.000
32.10702 105.000
32.12119 106.000
32.13536 84.000
32.14953 93.000
32.16370 107.000
32.17787 119.000
32.19204 108.000
32.20621 98.000
32.22038 105.000
32.23455 101.000
32.24872 114.000
32.26289 98.000
32.27706 115.000
32.29123 121.000
32.30540 97.000
32.31957 98.000
32.33374 90.000
32.34791 90.000
32.36208 105.000
32.37625 111.000
32.39042 123.000
32.40459 72.000
32.41876 102.000
32.43293 83.000
32.44710 113.000
32.46127 91.000
32.47544 128.000
32.48961 74.000
32.50378 111.000
32.51795 105.000
32.53212 93.000
32.54629 103.000
32.56046 98.000
32.57463 91.000
32.58880 83.000
32.60297 104.000
32.61714 113.000
32.63131 84.000
32.64548 94.000
32.65965 95.000
32.67382 113.000
32.68799 99.000
32.70216 93.000
32.71633 81.000
32.73050 113.000
32.74467 92.000
32.75884 107.000
32.77301 102.000
32.78718 104.000
32.80135 88.000
32.81552 108.000
32.82969 91.000
32.84386 104.000
32.85803 92.000
32.87220 91.000
32.88637 95.000
32.90054 93.000
32.91471 85.000
32.92888 85.000
32.94305 112.000
32.95722 98.000
32.97139 88.000
32.98556 101.000
32.99973 113.000
33.01390 88.000
33.02807 90.000
33.04224 101.000
33.05641 98.000
33.07058 100.000
33.08475 99.000
33.09892 117.000
33.11309 112.000
33.12726 91.000
33.14143 98.000
33.15560 109.000
33.16977 90.000
33.18394 97.000
33.19811 101.000
33.21228 106.000
33.22645 105.000
33.24062 88.000
33.25479 110.000
33.26895 88.000
33.28312 93.000
33.29729 94.000
33.31146 86.000
33.32563 106.000
33.33980 84.000
33.35397 85.000
33.36814 80.000
33.38231 101.000
33.39648 96.000
33.41065 119.000
33.42482 71.000
33.43899 108.000
33.45316 86.000
33.46733 99.000
33.48150 104.000
33.49567 76.000
33.50984 92.000
33.52401 97.000
33.53818 100.000
33.55235 93.000
33.56652 104.000
33.58069 101.000
33.59486 111.000
33.60903 92.000
33.62320 106.000
33.63737 101.000
33.65154 104.000
33.66571 114.000
33.67988 101.000
33.69405 98.000
33.70822 112.000
33.72239 122.000
33.73656 99.000
33.75073 114.000
33.76490 109.000
33.77907 100.000
33.79324 106.000
33.80741 112.000
33.82158 130.000
33.83575 137.000
33.84992 126.000
33.86409 115.000
33.87826 131.000
33.89243 129.000
33.90660 134.000
33.92077 113.000
33.93494 117.000
33.94911 118.000
33.96328 121.000
33.97745 128.000
33.99162 116.000
34.00579 129.000
34.01996 129.000
34.03413 127.000
34.04830 160.000
34.06247 150.000
34.07664 127.000
34.09081 136.000
34.10498 114.000
34.11915 125.000
34.13332 160.000
34.14749 127.000
34.16166 132.000
34.17583 131.000
34.19000 156.000
34.20417 142.000
34.21834 129.000
34.23251 127.000
34.24668 127.000
34.26085 146.000
34.27502 144.000
34.28919 159.000
34.30336 137.000
34.31753 159.000
34.33170 144.000
34.34587 142.000
34.36004 168.000
34.37421 146.000
34.38838 162.000
34.40255 153.000
34.41672 158.000
34.43089 178.000
34.44506 153.000
34.45923 150.000
34.47340 150.000
34.48757 127.000
34.50174 164.000
34.51591 197.000
34.53008 194.000
34.54425 171.000
34.55842 212.000
34.57259 190.000
34.58676 182.000
34.60093 193.000
34.61510 225.000
34.62927 225.000
34.64344 265.000
34.65761 214.000
34.67178 234.000
34.68595 264.000
34.70012 248.000
34.71429 278.000
34.72846 273.000
34.74263 319.000
34.75680 309.000
34.77097 377.000
34.78514 379.000
34.79931 396.000
34.81348 390.000
34.82765 442.000
34.84182 479.000
34.85599 514.000
34.87016 594.000
34.88433 600.000
34.89850 671.000
34.91267 694.000
34.92684 832.000
34.94101 905.000
34.95518 1023.000
34.96935 1097.000
34.98352 1359.000
34.99769 1569.000
35.01186 1776.000
35.02603 2134.000
35.04020 2410.000
35.05437 2885.000
35.06854 3379.000
35.08271 4225.000
35.09688 5035.000
35.11105 5585.000
35.12522 6294.000
35.13939 6461.000
35.15356 6222.000
35.16773 5805.000
35.18190 5097.000
35.19607 4817.000
35.21024 4473.000
35.22441 4083.000
35.23858 3825.000
35.25275 3245.000
35.26692 2711.000
35.28109 2220.000
35.29526 1742.000
35.30943 1407.000
35.32360 1218.000
35.33777 1028.000
35.35194 910.000
35.36611 833.000
35.38028 781.000
35.39445 668.000
35.40862 596.000
35.42279 597.000
35.43696 553.000
35.45113 502.000
35.46530 469.000
35.47947 417.000
35.49364 403.000
35.50781 342.000
35.52198 366.000
35.53615 298.000
35.55032 312.000
35.56449 292.000
35.57866 286.000
35.59283 245.000
35.60700 235.000
35.62117 252.000
35.63534 247.000
35.64951 237.000
35.66368 257.000
35.67785 219.000
35.69202 191.000
35.70619 196.000
35.72036 193.000
35.73453 177.000
35.74870 158.000
35.76287 166.000
35.77704 157.000
35.79121 152.000
35.80538 167.000
35.81955 139.000
35.83372 190.000
35.84789 186.000
35.86206 155.000
35.87623 169.000
35.89040 163.000
35.90457 164.000
35.91874 150.000
35.93291 123.000
35.94708 162.000
35.96125 135.000
35.97542 143.000
35.98959 115.000
36.00376 142.000
36.01793 121.000
36.03210 148.000
36.04627 132.000
36.06044 126.000
36.07461 129.000
36.08878 117.000
36.10295 145.000
36.11712 123.000
36.13129 134.000
36.14546 118.000
36.15963 112.000
36.17380 106.000
36.18797 136.000
36.20214 138.000
36.21631 147.000
36.23048 134.000
36.24465 137.000
36.25882 139.000
36.27299 123.000
36.28716 112.000
36.30133 123.000
36.31550 129.000
36.32967 132.000
36.34384 129.000
36.35801 140.000
36.37218 105.000
36.38635 123.000
36.40052 125.000
36.41469 124.000
36.42886 134.000
36.44303 126.000
36.45720 133.000
36.47137 133.000
36.48554 130.000
36.49971 128.000
36.51388 138.000
36.52805 138.000
36.54222 136.000
36.55639 125.000
36.57056 116.000
36.58473 118.000
36.59890 126.000
36.61307 137.000
36.62724 126.000
36.64141 113.000
36.65558 132.000
36.66975 136.000
36.68392 112.000
36.69809 107.000
36.71226 126.000
36.72643 137.000
36.74060 132.000
36.75477 126.000
36.76894 132.000
36.78311 133.000
36.79728 135.000
36.81145 143.000
36.82562 138.000
36.83979 125.000
36.85396 106.000
36.86813 119.000
36.88230 130.000
36.89647 120.000
36.91064 151.000
36.92481 136.000
36.93898 132.000
36.95315 127.000
36.96732 129.000
36.98149 128.000
36.99566 130.000
37.00983 116.000
37.02400 137.000
37.03817 124.000
37.05234 121.000
37.06651 131.000
37.08068 119.000
37.09485 132.000
37.10902 139.000
37.12319 153.000
37.13736 162.000
37.15153 154.000
37.16570 141.000
37.17987 124.000
37.19404 135.000
37.20821 144.000
37.22238 121.000
37.23655 148.000
37.25072 173.000
37.26489 170.000
37.27906 146.000
37.29323 157.000
37.30740 179.000
37.32157 172.000
37.33574 196.000
37.34991 185.000
37.36408 215.000
37.37825 181.000
37.39242 200.000
37.40659 218.000
37.42076 235.000
37.43493 266.000
37.44910 274.000
37.46327 289.000
37.47744 314.000
37.49161 327.000
37.50578 329.000
37.51995 376.000
37.53412 357.000
37.54829 391.000
37.56246 481.000
37.57663 515.000
37.59080 565.000
37.60497 651.000
37.61914 713.000
37.63331 850.000
37.64748 915.000
37.66165 1122.000
37.67582 1270.000
37.68999 1463.000
37.70416 1723.000
37.71833 1984.000
37.73250 2331.000
37.74667 2477.000
37.76084 2697.000
37.77501 2570.000
37.78918 2394.000
37.80335 2047.000
37.81752 1999.000
37.83169 1884.000
37.84586 1832.000
37.86003 1650.000
37.87420 1549.000
37.88837 1221.000
37.90254 1049.000
37.91671 889.000
37.93088 716.000
37.94505 635.000
37.95922 583.000
37.97339 455.000
37.98756 407.000
38.00173 405.000
38.01590 361.000
38.03007 335.000
38.04424 304.000
38.05841 323.000
38.07258 279.000
38.08675 288.000
38.10092 268.000
38.11509 230.000
38.12926 211.000
38.14343 224.000
38.15760 210.000
38.17177 183.000
38.18594 209.000
38.20011 187.000
38.21428 157.000
38.22845 158.000
38.24262 149.000
38.25679 161.000
38.27096 167.000
38.28513 140.000
38.29930 155.000
38.31347 129.000
38.32764 146.000
38.34181 138.000
38.35598 144.000
38.37015 136.000
38.38432 140.000
38.39849 130.000
38.41266 159.000
38.42683 136.000
38.44100 149.000
38.45517 134.000
38.46934 146.000
38.48351 124.000
38.49768 120.000
38.51185 141.000
38.52602 118.000
38.54019 121.000
38.55436 116.000
38.56853 108.000
38.58270 102.000
38.59687 127.000
38.61104 114.000
38.62521 111.000
38.63938 106.000
38.65355 101.000
38.66772 102.000
38.68189 109.000
38.69606 102.000
38.71023 119.000
38.72440 125.000
38.73857 96.000
38.75274 108.000
38.76691 118.000
38.78108 131.000
38.79525 91.000
38.80942 106.000
38.82359 102.000
38.83776 132.000
38.85193 102.000
38.86610 119.000
38.88027 113.000
38.89444 115.000
38.90861 115.000
38.92278 110.000
38.93695 115.000
38.95111 103.000
38.96528 100.000
38.97945 110.000
38.99362 111.000
39.00779 117.000
39.02196 120.000
39.03613 107.000
39.05030 106.000
39.06447 106.000
39.07864 99.000
39.09281 107.000
39.10698 109.000
39.12115 83.000
39.13532 85.000
39.14949 98.000
39.16366 98.000
39.17783 100.000
39.19200 104.000
39.20617 82.000
39.22034 85.000
39.23451 120.000
39.24868 107.000
39.26285 99.000
39.27702 91.000
39.29119 85.000
39.30536 98.000
39.31953 102.000
39.33370 101.000
39.34787 102.000
39.36204 102.000
39.37621 106.000
39.39038 82.000
39.40455 108.000
39.41872 95.000
39.43289 112.000
39.44706 90.000
39.46123 96.000
39.47540 113.000
39.48957 94.000
39.50374 125.000
39.51791 90.000
39.53208 91.000
39.54625 104.000
39.56042 103.000
39.57459 111.000
39.58876 89.000
39.60293 109.000
39.61710 97.000
39.63127 94.000
39.64544 96.000
39.65961 71.000
39.67378 94.000
39.68795 114.000
39.70212 96.000
39.71629 98.000
39.73046 88.000
39.74463 89.000
39.75880 91.000
39.77297 90.000
39.78714 84.000
39.80131 84.000
39.81548 87.000
39.82965 104.000
39.84382 104.000
39.85799 81.000
39.87216 94.000
39.88633 83.000
39.90050 97.000
39.91467 90.000
39.92884 82.000
39.94301 94.000
39.95718 83.000
39.97135 98.000
39.98552 89.000
39.99969 101.000
40.01386 101.000
40.02803 101.000
40.04220 89.000
40.05637 98.000
40.07054 102.000
40.08471 94.000
40.09888 101.000
40.11305 86.000
40.12722 88.000
40.14139 99.000
40.15556 103.000
40.16973 83.000
40.18390 109.000
40.19807 86.000
40.21224 103.000
40.22641 100.000
40.24058 94.000
40.25475 110.000
40.26892 97.000
40.28309 89.000
40.29726 84.000
40.31143 84.000
40.32560 91.000
40.33977 97.000
40.35394 88.000
40.36811 87.000
40.38228 97.000
40.39645 95.000
40.41062 106.000
40.42479 91.000
40.43896 92.000
40.45313 100.000
40.46730 92.000
40.48147 101.000
40.49564 94.000
40.50981 85.000
40.52398 81.000
40.53815 79.000
40.55232 99.000
40.56649 88.000
40.58066 98.000
40.59483 79.000
40.60900 94.000
40.62317 78.000
40.63734 70.000
40.65151 106.000
40.66568 83.000
40.67985 89.000
40.69402 73.000
40.70819 76.000
40.72236 96.000
40.73653 84.000
40.75070 99.000
40.76487 88.000
40.77904 113.000
40.79321 71.000
40.80738 105.000
40.82155 90.000
40.83572 91.000
40.84989 97.000
40.86406 83.000
40.87823 104.000
40.89240 106.000
40.90657 97.000
40.92074 94.000
40.93491 102.000
40.94908 110.000
40.96325 90.000
40.97742 101.000
40.99159 87.000
41.00576 79.000
41.01993 97.000
41.03410 73.000
41.04827 82.000
41.06244 85.000
41.07661 101.000
41.09078 94.000
41.10495 90.000
41.11912 94.000
41.13329 102.000
41.14746 104.000
41.16163 95.000
41.17580 103.000
41.18997 97.000
41.20414 100.000
41.21831 95.000
41.23248 86.000
41.24665 107.000
41.26082 97.000
41.27499 90.000
41.28916 107.000
41.30333 93.000
41.31750 84.000
41.33167 88.000
41.34584 100.000
41.36001 101.000
41.37418 103.000
41.38835 103.000
41.40252 108.000
41.41669 96.000
41.43086 95.000
41.44503 103.000
41.45920 107.000
41.47337 95.000
41.48754 102.000
41.50171 118.000
41.51588 95.000
41.53005 112.000
41.54422 139.000
41.55839 114.000
41.57256 137.000
41.58673 131.000
41.60090 130.000
41.61507 156.000
41.62924 126.000
41.64341 158.000
41.65758 141.000
41.67175 136.000
41.68592 135.000
41.70009 145.000
41.71426 130.000
41.72843 142.000
41.74260 145.000
41.75677 129.000
41.77094 134.000
41.78511 155.000
41.79928 113.000
41.81345 117.000
41.82762 129.000
41.84179 138.000
41.85596 142.000
41.87013 117.000
41.88430 139.000
41.89847 123.000
41.91264 137.000
41.92681 117.000
41.94098 124.000
41.95515 107.000
41.96932 142.000
41.98349 132.000
41.99766 132.000
42.01183 109.000
42.02600 115.000
42.04017 120.000
42.05434 130.000
42.06851 148.000
42.08268 146.000
42.09685 117.000
42.11102 129.000
42.12519 126.000
42.13936 126.000
42.15353 126.000
42.16770 125.000
42.18187 117.000
42.19604 122.000
42.21021 119.000
42.22438 132.000
42.23855 127.000
42.25272 133.000
42.26689 129.000
42.28106 137.000
42.29523 122.000
42.30940 114.000
42.32357 133.000
42.33774 159.000
42.35191 137.000
42.36608 139.000
42.38025 144.000
42.39442 111.000
42.40859 148.000
42.42276 134.000
42.43693 143.000
42.45110 143.000
42.46527 133.000
42.47944 141.000
42.49361 141.000
42.50778 156.000
42.52195 178.000
42.53612 168.000
42.55029 156.000
42.56446 172.000
42.57863 164.000
42.59280 146.000
42.60697 170.000
42.62114 163.000
42.63531 183.000
42.64948 178.000
42.66365 176.000
42.67782 205.000
42.69199 205.000
42.70616 191.000
42.72033 189.000
42.73450 214.000
42.74867 221.000
42.76284 199.000
42.77701 246.000
42.79118 226.000
42.80535 238.000
42.81952 275.000
42.83369 275.000
42.84786 265.000
42.86203 270.000
42.87620 308.000
42.89037 298.000
42.90454 350.000
42.91871 354.000
42.93288 340.000
42.94705 362.000
42.96122 397.000
42.97539 447.000
42.98956 458.000
43.00373 515.000
43.01790 549.000
43.03207 576.000
43.04624 606.000
43.06041 653.000
43.07458 712.000
43.08875 799.000
43.10292 841.000
43.11709 953.000
43.13126 1068.000
43.14543 1199.000
43.15960 1332.000
43.17377 1476.000
43.18794 1633.000
43.20211 1817.000
43.21628 2134.000
43.23045 2411.000
43.24462 2795.000
43.25879 3261.000
43.27296 3644.000
43.28713 4418.000
43.30130 4868.000
43.31547 5540.000
43.32964 5900.000
43.34381 5953.000
43.35798 5433.000
43.37215 5133.000
43.38632 4585.000
43.40049 4126.000
43.41466 4007.000
43.42883 3885.000
43.44300 3748.000
43.45717 3464.000
43.47134 3197.000
43.48551 2682.000
43.49968 2164.000
43.51385 1875.000
43.52802 1533.000
43.54219 1337.000
43.55636 1175.000
43.57053 990.000
43.58470 934.000
43.59887 824.000
43.61304 758.000
43.62721 672.000
43.64138 598.000
43.65555 613.000
43.66972 540.000
43.68389 479.000
43.69806 508.000
43.71223 480.000
43.72640 433.000
43.74057 396.000
43.75474 379.000
43.76891 367.000
43.78308 311.000
43.79725 294.000
43.81142 295.000
43.82559 309.000
43.83976 296.000
43.85393 266.000
43.86810 265.000
43.88227 249.000
43.89644 227.000
43.91061 222.000
43.92478 233.000
43.93895 209.000
43.95312 220.000
43.96729 194.000
43.98146 192.000
43.99563 193.000
44.00980 160.000
44.02397 210.000
44.03814 170.000
44.05231 167.000
44.06648 168.000
44.08065 174.000
44.09482 160.000
44.10899 183.000
44.12316 155.000
44.13733 168.000
44.15150 139.000
44.16567 154.000
44.17984 158.000
44.19401 134.000
44.20818 143.000
44.22235 156.000
44.23652 145.000
44.25069 138.000
44.26486 151.000
44.27903 147.000
44.29320 125.000
44.30737 142.000
44.32154 124.000
44.33571 126.000
44.34988 124.000
44.36405 128.000
44.37822 108.000
44.39239 119.000
44.40656 128.000
44.42073 126.000
44.43490 92.000
44.44907 108.000
44.46324 122.000
44.47741 134.000
44.49158 115.000
44.50575 115.000
44.51992 114.000
44.53409 114.000
44.54826 112.000
44.56243 119.000
44.57660 126.000
44.59077 112.000
44.60494 115.000
44.61911 99.000
44.63328 99.000
44.64744 114.000
44.66161 85.000
44.67578 91.000
44.68995 108.000
44.70412 113.000
44.71829 91.000
44.73246 96.000
44.74663 111.000
44.76080 95.000
44.77497 112.000
44.78914 99.000
44.80331 114.000
44.81748 108.000
44.83165 105.000
44.84582 107.000
44.85999 88.000
44.87416 110.000
44.88833 108.000
44.90250 104.000
44.91667 98.000
44.93084 106.000
44.94501 86.000
44.95918 99.000
44.97335 90.000
44.98752 95.000
45.00169 79.000
45.01586 90.000
45.03003 71.000
45.04420 98.000
45.05837 90.000
45.07254 98.000
45.08671 100.000
45.10088 110.000
45.11505 96.000
45.12922 102.000
45.14339 104.000
45.15756 102.000
45.17173 99.000
45.18590 95.000
45.20007 101.000
45.21424 88.000
45.22841 95.000
45.24258 98.000
45.25675 95.000
45.27092 99.000
45.28509 101.000
45.29926 93.000
45.31343 95.000
45.32760 110.000
45.34177 96.000
45.35594 99.000
45.37011 96.000
45.38428 91.000
45.39845 93.000
45.41262 92.000
45.42679 97.000
45.44096 102.000
45.45513 83.000
45.46930 111.000
45.48347 83.000
45.49764 85.000
45.51181 96.000
45.52598 83.000
45.54015 91.000
45.55432 89.000
45.56849 98.000
45.58266 92.000
45.59683 99.000
45.61100 97.000
45.62517 101.000
45.63934 97.000
45.65351 80.000
45.66768 86.000
45.68185 114.000
45.69602 109.000
45.71019 89.000
45.72436 91.000
45.73853 82.000
45.75270 83.000
45.76687 91.000
45.78104 102.000
45.79521 93.000
45.80938 98.000
45.82355 91.000
45.83772 87.000
45.85189 100.000
45.86606 90.000
45.88023 109.000
45.89440 93.000
45.90857 126.000
45.92274 108.000
45.93691 110.000
45.95108 113.000
45.96525 87.000
45.97942 105.000
45.99359 103.000
46.00776 115.000
46.02193 103.000
46.03610 107.000
46.05027 100.000
46.06444 140.000
46.07861 115.000
46.09278 124.000
46.10695 134.000
46.12112 148.000
46.13529 156.000
46.14946 154.000
46.16363 156.000
46.17780 160.000
46.19197 155.000
46.20614 149.000
46.22031 146.000
46.23448 120.000
46.24865 138.000
46.26282 122.000
46.27699 140.000
46.29116 151.000
46.30533 125.000
46.31950 116.000
46.33367 121.000
46.34784 87.000
46.36201 111.000
46.37618 100.000
46.39035 105.000
46.40452 101.000
46.41869 100.000
46.43286 96.000
46.44703 86.000
46.46120 79.000
46.47537 83.000
46.48954 117.000
46.50371 109.000
46.51788 87.000
46.53205 85.000
46.54622 93.000
46.56039 97.000
46.57456 96.000
46.58873 92.000
46.60290 86.000
46.61707 89.000
46.63124 103.000
46.64541 77.000
46.65958 91.000
46.67375 103.000
46.68792 87.000
46.70209 83.000
46.71626 92.000
46.73043 89.000
46.74460 90.000
46.75877 85.000
46.77294 92.000
46.78711 94.000
46.80128 79.000
46.81545 97.000
46.82962 94.000
46.84379 101.000
46.85796 84.000
46.87213 97.000
46.88630 79.000
46.90047 84.000
46.91464 91.000
46.92881 98.000
46.94298 103.000
46.95715 88.000
46.97132 85.000
46.98549 91.000
46.99966 98.000
47.01383 117.000
47.02800 94.000
47.04217 117.000
47.05634 113.000
47.07051 106.000
47.08468 117.000
47.09885 125.000
47.11302 132.000
47.12719 128.000
47.14136 141.000
47.15553 172.000
47.16970 191.000
47.18387 213.000
47.19804 241.000
47.21221 246.000
47.22638 317.000
47.24055 358.000
47.25472 532.000
47.26889 760.000
47.28306 966.000
47.29723 924.000
47.31140 651.000
47.32557 512.000
47.33974 354.000
47.35391 330.000
47.36808 307.000
47.38225 365.000
47.39642 464.000
47.41059 526.000
47.42476 506.000
47.43893 342.000
47.45310 249.000
47.46727 179.000
47.48144 147.000
47.49561 137.000
47.50978 105.000
47.52395 128.000
47.53812 100.000
47.55229 99.000
47.56646 90.000
47.58063 115.000
47.59480 90.000
47.60897 104.000
47.62314 91.000
47.63731 75.000
47.65148 84.000
47.66565 95.000
47.67982 96.000
47.69399 99.000
47.70816 83.000
47.72233 88.000
47.73650 79.000
47.75067 102.000
47.76484 91.000
47.77901 96.000
47.79318 91.000
47.80735 86.000
47.82152 70.000
47.83569 71.000
47.84986 85.000
47.86403 83.000
47.87820 87.000
47.89237 85.000
47.90654 62.000
47.92071 76.000
47.93488 64.000
47.94905 89.000
47.96322 90.000
47.97739 91.000
47.99156 88.000
48.00573 86.000
48.01990 87.000
48.03407 79.000
48.04824 82.000
48.06241 72.000
48.07658 69.000
48.09075 87.000
48.10492 79.000
48.11909 92.000
48.13326 70.000
48.14743 80.000
48.16160 74.000
48.17577 81.000
48.18994 67.000
48.20411 69.000
48.21828 72.000
48.23245 71.000
48.24662 60.000
48.26079 84.000
48.27496 83.000
48.28913 78.000
48.30330 70.000
48.31747 96.000
48.33164 76.000
48.34581 78.000
48.35998 73.000
48.37415 85.000
48.38832 75.000
48.40249 77.000
48.41666 70.000
48.43083 84.000
48.44500 89.000
48.45917 78.000
48.47334 68.000
48.48751 81.000
48.50168 80.000
48.51585 82.000
48.53002 78.000
48.54419 95.000
48.55836 82.000
48.57253 75.000
48.58670 72.000
48.60087 88.000
48.61504 88.000
48.62921 73.000
48.64338 79.000
48.65755 75.000
48.67172 68.000
48.68589 86.000
48.70006 79.000
48.71423 71.000
48.72840 95.000
48.74257 73.000
48.75674 74.000
48.77091 72.000
48.78508 84.000
48.79925 79.000
48.81342 71.000
48.82759 91.000
48.84176 57.000
48.85593 89.000
48.87010 87.000
48.88427 90.000
48.89844 77.000
48.91261 90.000
48.92678 70.000
48.94095 65.000
48.95512 77.000
48.96929 89.000
48.98346 77.000
48.99763 83.000
49.01180 74.000
49.02597 83.000
49.04014 69.000
49.05431 88.000
49.06848 72.000
49.08265 74.000
49.09682 66.000
49.11099 94.000
49.12516 69.000
49.13933 74.000
49.15350 86.000
49.16767 67.000
49.18184 80.000
49.19601 76.000
49.21018 64.000
49.22435 75.000
49.23852 87.000
49.25269 78.000
49.26686 78.000
49.28103 74.000
49.29520 78.000
49.30937 73.000
49.32354 70.000
49.33771 87.000
49.35188 75.000
49.36605 70.000
49.38022 68.000
49.39439 91.000
49.40856 66.000
49.42273 75.000
49.43690 66.000
49.45107 77.000
49.46524 66.000
49.47941 74.000
49.49358 65.000
49.50775 83.000
49.52192 78.000
49.53609 84.000
49.55026 76.000
49.56443 77.000
49.57860 75.000
49.59277 72.000
49.60694 75.000
49.62111 66.000
49.63528 78.000
49.64945 73.000
49.66362 78.000
49.67779 76.000
49.69196 71.000
49.70613 75.000
49.72030 79.000
49.73447 75.000
49.74864 77.000
49.76281 83.000
49.77698 74.000
49.79115 80.000
49.80532 74.000
49.81949 81.000
49.83366 74.000
49.84783 82.000
49.86200 80.000
49.87617 97.000
49.89034 68.000
49.90451 69.000
49.91868 69.000
49.93285 70.000
49.94702 73.000
49.96119 73.000
49.97536 74.000
49.98953 67.000
50.00370 76.000
50.01787 79.000
50.03204 71.000
50.04621 69.000
50.06038 75.000
50.07455 86.000
50.08872 83.000
50.10289 83.000
50.11706 78.000
50.13123 93.000
50.14540 73.000
50.15957 74.000
50.17374 74.000
50.18791 63.000
50.20208 70.000
50.21625 64.000
50.23042 69.000
50.24459 83.000
50.25876 70.000
50.27293 73.000
50.28710 79.000
50.30127 75.000
50.31544 75.000
50.32960 82.000
50.34377 74.000
50.35794 63.000
50.37211 78.000
50.38628 80.000
50.40045 69.000
50.41462 56.000
50.42879 85.000
50.44296 80.000
50.45713 77.000
50.47130 56.000
50.48547 65.000
50.49964 84.000
50.51381 82.000
50.52798 69.000
50.54215 67.000
50.55632 77.000
50.57049 70.000
50.58466 84.000
50.59883 92.000
50.61300 78.000
50.62717 79.000
50.64134 69.000
50.65551 82.000
50.66968 74.000
50.68385 64.000
50.69802 75.000
50.71219 92.000
50.72636 72.000
50.74053 78.000
50.75470 89.000
50.76887 78.000
50.78304 80.000
50.79721 80.000
50.81138 81.000
50.82555 78.000
50.83972 76.000
50.85389 81.000
50.86806 75.000
50.88223 94.000
50.89640 90.000
50.91057 105.000
50.92474 79.000
50.93891 83.000
50.95308 79.000
50.96725 86.000
50.98142 82.000
50.99559 80.000
51.00976 86.000
51.02393 81.000
51.03810 96.000
51.05227 87.000
51.06644 92.000
51.08061 82.000
51.09478 87.000
51.10895 90.000
51.12312 96.000
51.13729 85.000
51.15146 82.000
51.16563 101.000
51.17980 88.000
51.19397 71.000
51.20814 76.000
51.22231 73.000
51.23648 88.000
51.25065 86.000
51.26482 91.000
51.27899 83.000
51.29316 104.000
51.30733 75.000
51.32150 102.000
51.33567 110.000
51.34984 94.000
51.36401 81.000
51.37818 86.000
51.39235 82.000
51.40652 110.000
51.42069 94.000
51.43486 106.000
51.44903 96.000
51.46320 104.000
51.47737 91.000
51.49154 96.000
51.50571 86.000
51.51988 108.000
51.53405 109.000
51.54822 97.000
51.56239 104.000
51.57656 108.000
51.59073 98.000
51.60490 107.000
51.61907 94.000
51.63324 91.000
51.64741 95.000
51.66158 100.000
51.67575 97.000
51.68992 116.000
51.70409 97.000
51.71826 103.000
51.73243 88.000
51.74660 107.000
51.76077 90.000
51.77494 93.000
51.78911 107.000
51.80328 117.000
51.81745 102.000
51.83162 104.000
51.84579 110.000
51.85996 103.000
51.87413 99.000
51.88830 116.000
51.90247 131.000
51.91664 136.000
51.93081 129.000
51.94498 141.000
51.95915 151.000
51.97332 140.000
51.98749 118.000
52.00166 146.000
52.01583 132.000
52.03000 151.000
52.04417 161.000
52.05834 155.000
52.07251 156.000
52.08668 158.000
52.10085 166.000
52.11502 194.000
52.12919 248.000
52.14336 216.000
52.15753 221.000
52.17170 209.000
52.18587 228.000
52.20004 227.000
52.21421 286.000
52.22838 302.000
52.24255 357.000
52.25672 346.000
52.27089 346.000
52.28506 412.000
52.29923 418.000
52.31340 464.000
52.32757 459.000
52.34174 525.000
52.35591 588.000
52.37008 694.000
52.38425 689.000
52.39842 794.000
52.41259 884.000
52.42676 977.000
52.44093 1151.000
52.45510 1192.000
52.46927 1451.000
52.48344 1586.000
52.49761 1712.000
52.51178 1926.000
52.52595 2090.000
52.54012 2002.000
52.55429 1978.000
52.56846 1847.000
52.58263 1659.000
52.59680 1556.000
52.61097 1443.000
52.62514 1376.000
52.63931 1346.000
52.65348 1385.000
52.66765 1323.000
52.68182 1291.000
52.69599 1136.000
52.71016 1031.000
52.72433 892.000
52.73850 748.000
52.75267 680.000
52.76684 558.000
52.78101 506.000
52.79518 435.000
52.80935 443.000
52.82352 365.000
52.83769 342.000
52.85186 335.000
52.86603 265.000
52.88020 269.000
52.89437 268.000
52.90854 295.000
52.92271 228.000
52.93688 209.000
52.95105 205.000
52.96522 203.000
52.97939 191.000
52.99356 196.000
53.00773 202.000
53.02190 185.000
53.03607 160.000
53.05024 181.000
53.06441 156.000
53.07858 139.000
53.09275 145.000
53.10692 128.000
53.12109 124.000
53.13526 122.000
53.14943 134.000
53.16360 135.000
53.17777 136.000
53.19194 139.000
53.20611 134.000
53.22028 115.000
53.23445 114.000
53.24862 96.000
53.26279 120.000
53.27696 97.000
53.29113 93.000
53.30530 132.000
53.31947 120.000
53.33364 115.000
53.34781 102.000
53.36198 111.000
53.37615 107.000
53.39032 122.000
53.40449 83.000
53.41866 93.000
53.43283 108.000
53.44700 90.000
53.46117 101.000
53.47534 94.000
53.48951 80.000
53.50368 97.000
53.51785 88.000
53.53202 82.000
53.54619 95.000
53.56036 90.000
53.57453 94.000
53.58870 80.000
53.60287 91.000
53.61704 66.000
53.63121 80.000
53.64538 71.000
53.65955 93.000
53.67372 89.000
53.68789 82.000
53.70206 82.000
53.71623 78.000
53.73040 98.000
53.74457 70.000
53.75874 100.000
53.77291 87.000
53.78708 81.000
53.80125 76.000
53.81542 82.000
53.82959 79.000
53.84376 75.000
53.85793 74.000
53.87210 94.000
53.88627 85.000
53.90044 67.000
53.91461 97.000
53.92878 77.000
53.94295 86.000
53.95712 66.000
53.97129 78.000
53.98546 71.000
53.99963 71.000
54.01380 63.000
54.02797 60.000
54.04214 74.000
54.05631 76.000
54.07048 65.000
54.08465 81.000
54.09882 78.000
54.11299 92.000
54.12716 87.000
54.14133 78.000
54.15550 78.000
54.16967 79.000
54.18384 79.000
54.19801 70.000
54.21218 68.000
54.22635 81.000
54.24052 82.000
54.25469 79.000
54.26886 62.000
54.28303 67.000
54.29720 73.000
54.31137 61.000
54.32554 75.000
54.33971 68.000
54.35388 81.000
54.36805 75.000
54.38222 78.000
54.39639 72.000
54.41056 82.000
54.42473 74.000
54.43890 64.000
54.45307 77.000
54.46724 70.000
54.48141 67.000
54.49558 69.000
54.50975 67.000
54.52392 67.000
54.53809 83.000
54.55226 85.000
54.56643 73.000
54.58060 76.000
54.59477 75.000
54.60894 80.000
54.62311 77.000
54.63728 82.000
54.65145 77.000
54.66562 71.000
54.67979 74.000
54.69396 77.000
54.70813 75.000
54.72230 85.000
54.73647 60.000
54.75064 71.000
54.76481 66.000
54.77898 86.000
54.79315 76.000
54.80732 67.000
54.82149 72.000
54.83566 73.000
54.84983 73.000
54.86400 75.000
54.87817 73.000
54.89234 83.000
54.90651 71.000
54.92068 76.000
54.93485 80.000
54.94902 65.000
54.96319 67.000
54.97736 71.000
54.99153 80.000
55.00570 78.000
55.01987 76.000
55.03404 86.000
55.04821 74.000
55.06238 83.000
55.07655 68.000
55.09072 83.000
55.10489 64.000
55.11906 72.000
55.13323 73.000
55.14740 73.000
55.16157 75.000
55.17574 79.000
55.18991 58.000
55.20408 73.000
55.21825 89.000
55.23242 81.000
55.24659 68.000
55.26076 62.000
55.27493 73.000
55.28910 71.000
55.30327 71.000
55.31744 78.000
55.33161 84.000
55.34578 93.000
55.35995 90.000
55.37412 64.000
55.38829 93.000
55.40246 72.000
55.41663 109.000
55.43080 98.000
55.44497 81.000
55.45914 90.000
55.47331 91.000
55.48748 73.000
55.50165 90.000
55.51582 83.000
55.52999 87.000
55.54416 84.000
55.55833 87.000
55.57250 91.000
55.58667 77.000
55.60084 99.000
55.61501 89.000
55.62918 83.000
55.64335 96.000
55.65752 75.000
55.67169 86.000
55.68586 88.000
55.70003 93.000
55.71420 72.000
55.72837 96.000
55.74254 87.000
55.75671 99.000
55.77088 89.000
55.78505 103.000
55.79922 99.000
55.81339 99.000
55.82756 110.000
55.84173 93.000
55.85590 96.000
55.87007 124.000
55.88424 102.000
55.89841 116.000
55.91258 126.000
55.92675 119.000
55.94092 114.000
55.95509 161.000
55.96926 141.000
55.98343 187.000
55.99760 197.000
56.01177 228.000
56.02593 272.000
56.04010 360.000
56.05427 441.000
56.06844 599.000
56.08261 812.000
56.09678 1058.000
56.11095 1260.000
56.12512 1117.000
56.13929 794.000
56.15346 638.000
56.16763 410.000
56.18180 315.000
56.19597 339.000
56.21014 356.000
56.22431 420.000
56.23848 551.000
56.25265 646.000
56.26682 648.000
56.28099 586.000
56.29516 474.000
56.30933 321.000
56.32350 254.000
56.33767 191.000
56.35184 178.000
56.36601 125.000
56.38018 145.000
56.39435 156.000
56.40852 137.000
56.42269 153.000
56.43686 134.000
56.45103 119.000
56.46520 120.000
56.47937 124.000
56.49354 125.000
56.50771 138.000
56.52188 132.000
56.53605 124.000
56.55022 135.000
56.56439 136.000
56.57856 132.000
56.59273 134.000
56.60690 117.000
56.62107 106.000
56.63524 118.000
56.64941 137.000
56.66358 129.000
56.67775 147.000
56.69192 146.000
56.70609 108.000
56.72026 127.000
56.73443 143.000
56.74860 135.000
56.76277 142.000
56.77694 168.000
56.79111 163.000
56.80528 161.000
56.81945 155.000
56.83362 163.000
56.84779 172.000
56.86196 178.000
56.87613 186.000
56.89030 201.000
56.90447 191.000
56.91864 181.000
56.93281 185.000
56.94698 211.000
56.96115 207.000
56.97532 227.000
56.98949 230.000
57.00366 268.000
57.01783 249.000
57.03200 253.000
57.04617 283.000
57.06034 282.000
57.07451 329.000
57.08868 348.000
57.10285 367.000
57.11702 391.000
57.13119 402.000
57.14536 450.000
57.15953 442.000
57.17370 470.000
57.18787 498.000
57.20204 574.000
57.21621 643.000
57.23038 643.000
57.24455 696.000
57.25872 780.000
57.27289 873.000
57.28706 932.000
57.30123 1018.000
57.31540 1186.000
57.32957 1294.000
57.34374 1433.000
57.35791 1566.000
57.37208 1819.000
57.38625 1987.000
57.40042 2192.000
57.41459 2462.000
57.42876 2775.000
57.44293 3054.000
57.45710 3322.000
57.47127 3632.000
57.48544 3573.000
57.49961 3483.000
57.51378 3341.000
57.52795 3055.000
57.54212 2801.000
57.55629 2414.000
57.57046 2397.000
57.58463 2232.000
57.59880 2213.000
57.61297 2271.000
57.62714 2238.000
57.64131 2228.000
57.65548 2039.000
57.66965 1909.000
57.68382 1682.000
57.69799 1424.000
57.71216 1235.000
57.72633 1015.000
57.74050 904.000
57.75467 816.000
57.76884 730.000
57.78301 705.000
57.79718 598.000
57.81135 592.000
57.82552 482.000
57.83969 474.000
57.85386 432.000
57.86803 384.000
57.88220 373.000
57.89637 347.000
57.91054 337.000
57.92471 307.000
57.93888 276.000
57.95305 301.000
57.96722 280.000
57.98139 239.000
57.99556 258.000
58.00973 211.000
58.02390 204.000
58.03807 202.000
58.05224 221.000
58.06641 208.000
58.08058 182.000
58.09475 213.000
58.10892 188.000
58.12309 174.000
58.13726 168.000
58.15143 193.000
58.16560 167.000
58.17977 172.000
58.19394 166.000
58.20811 153.000
58.22228 140.000
58.23645 136.000
58.25062 135.000
58.26479 138.000
58.27896 133.000
58.29313 136.000
58.30730 114.000
58.32147 125.000
58.33564 119.000
58.34981 139.000
58.36398 107.000
58.37815 120.000
58.39232 127.000
58.40649 133.000
58.42066 102.000
58.43483 97.000
58.44900 100.000
58.46317 105.000
58.47734 112.000
58.49151 101.000
58.50568 83.000
58.51985 101.000
58.53402 91.000
58.54819 95.000
58.56236 112.000
58.57653 97.000
58.59070 89.000
58.60487 106.000
58.61904 97.000
58.63321 91.000
58.64738 75.000
58.66155 99.000
58.67572 92.000
58.68989 94.000
58.70406 118.000
58.71823 95.000
58.73240 81.000
58.74657 82.000
58.76074 71.000
58.77491 100.000
58.78908 81.000
58.80325 75.000
58.81742 78.000
58.83159 86.000
58.84576 81.000
58.85993 100.000
58.87410 78.000
58.88827 95.000
58.90244 80.000
58.91661 88.000
58.93078 91.000
58.94495 77.000
58.95912 111.000
58.97329 79.000
58.98746 104.000
59.00163 85.000
59.01580 85.000
59.02997 84.000
59.04414 98.000
59.05831 72.000
59.07248 70.000
59.08665 103.000
59.10082 88.000
59.11499 94.000
59.12916 79.000
59.14333 80.000
59.15750 95.000
59.17167 100.000
59.18584 78.000
59.20001 74.000
59.21418 65.000
59.22835 80.000
59.24252 89.000
59.25669 84.000
59.27086 74.000
59.28503 84.000
59.29920 71.000
59.31337 97.000
59.32754 68.000
59.34171 90.000
59.35588 79.000
59.37005 93.000
59.38422 94.000
59.39839 73.000
59.41256 91.000
59.42673 76.000
59.44090 98.000
59.45507 88.000
59.46924 85.000
59.48341 85.000
59.49758 84.000
59.51175 97.000
59.52592 72.000
59.54009 85.000
59.55426 102.000
59.56843 121.000
59.58260 116.000
59.59677 111.000
59.61094 125.000
59.62511 128.000
59.63928 139.000
59.65345 114.000
59.66762 123.000
59.68179 158.000
59.69596 162.000
59.71013 152.000
59.72430 170.000
59.73847 151.000
59.75264 138.000
59.76681 142.000
59.78098 140.000
59.79515 139.000
59.80932 137.000
59.82349 140.000
59.83766 120.000
59.85183 127.000
59.86600 103.000
59.88017 117.000
59.89434 106.000
59.90851 99.000
59.92268 108.000
59.93685 111.000
59.95102 102.000
59.96519 100.000
59.97936 97.000
59.99353 93.000
60.00770 85.000
60.02187 83.000
60.03604 70.000
60.05021 94.000
60.06438 89.000
60.07855 79.000
60.09272 78.000
60.10689 74.000
60.12106 73.000
60.13523 64.000
60.14940 69.000
60.16357 63.000
60.17774 77.000
60.19191 85.000
60.20608 68.000
60.22025 82.000
60.23442 77.000
60.24859 74.000
60.26276 74.000
60.27693 98.000
60.29110 89.000
60.30527 81.000
60.31944 75.000
60.33361 74.000
60.34778 63.000
60.36195 75.000
60.37612 79.000
60.39029 79.000
60.40446 55.000
60.41863 66.000
60.43280 62.000
60.44697 68.000
60.46114 71.000
60.47531 80.000
60.48948 66.000
60.50365 66.000
60.51782 77.000
60.53199 78.000
60.54616 78.000
60.56033 75.000
60.57450 85.000
60.58867 77.000
60.60284 67.000
60.61701 83.000
60.63118 79.000
60.64535 88.000
60.65952 77.000
60.67369 77.000
60.68786 85.000
60.70203 82.000
60.71620 89.000
60.73037 89.000
60.74454 87.000
60.75871 77.000
60.77288 91.000
60.78705 98.000
60.80122 93.000
60.81539 94.000
60.82956 101.000
60.84373 116.000
60.85790 102.000
60.87207 111.000
60.88624 113.000
60.90041 103.000
60.91458 128.000
60.92875 107.000
60.94292 120.000
60.95709 124.000
60.97126 130.000
60.98543 160.000
60.99960 134.000
61.01377 162.000
61.02794 176.000
61.04211 198.000
61.05628 194.000
61.07045 216.000
61.08462 200.000
61.09879 232.000
61.11296 224.000
61.12713 236.000
61.14130 257.000
61.15547 256.000
61.16964 260.000
61.18381 258.000
61.19798 265.000
61.21215 282.000
61.22632 315.000
61.24049 338.000
61.25466 354.000
61.26883 334.000
61.28300 361.000
61.29717 350.000
61.31134 363.000
61.32551 327.000
61.33968 279.000
61.35385 257.000
61.36802 247.000
61.38219 252.000
61.39636 253.000
61.41053 237.000
61.42470 239.000
61.43887 208.000
61.45304 209.000
61.46721 234.000
61.48138 183.000
61.49555 194.000
61.50972 175.000
61.52389 142.000
61.53806 142.000
61.55223 137.000
61.56640 106.000
61.58057 102.000
61.59474 124.000
61.60891 99.000
61.62308 86.000
61.63725 98.000
61.65142 88.000
61.66559 98.000
61.67976 98.000
61.69393 86.000
61.70810 103.000
61.72226 93.000
61.73643 80.000
61.75060 70.000
61.76477 93.000
61.77894 94.000
61.79311 89.000
61.80728 57.000
61.82145 76.000
61.83562 72.000
61.84979 74.000
61.86396 74.000
61.87813 62.000
61.89230 74.000
61.90647 74.000
61.92064 71.000
61.93481 60.000
61.94898 61.000
61.96315 65.000
61.97732 55.000
61.99149 61.000
62.00566 71.000
62.01983 71.000
62.03400 67.000
62.04817 63.000
62.06234 70.000
62.07651 54.000
62.09068 74.000
62.10485 68.000
62.11902 53.000
62.13319 70.000
62.14736 65.000
62.16153 59.000
62.17570 67.000
62.18987 44.000
62.20404 64.000
62.21821 48.000
62.23238 69.000
62.24655 42.000
62.26072 68.000
62.27489 55.000
62.28906 57.000
62.30323 58.000
62.31740 62.000
62.33157 52.000
62.34574 63.000
62.35991 65.000
62.37408 68.000
62.38825 56.000
62.40242 51.000
62.41659 60.000
62.43076 70.000
62.44493 56.000
62.45910 70.000
62.47327 65.000
62.48744 63.000
62.50161 66.000
62.51578 61.000
62.52995 61.000
62.54412 60.000
62.55829 61.000
62.57246 62.000
62.58663 59.000
62.60080 61.000
62.61497 58.000
62.62914 62.000
62.64331 70.000
62.65748 70.000
62.67165 60.000
62.68582 57.000
62.69999 68.000
62.71416 66.000
62.72833 70.000
62.74250 61.000
62.75667 74.000
62.77084 51.000
62.78501 71.000
62.79918 68.000
62.81335 60.000
62.82752 62.000
62.84169 61.000
62.85586 59.000
62.87003 63.000
62.88420 67.000
62.89837 63.000
62.91254 69.000
62.92671 60.000
62.94088 57.000
62.95505 44.000
62.96922 57.000
62.98339 59.000
62.99756 63.000
63.01173 56.000
63.02590 59.000
63.04007 54.000
63.05424 58.000
63.06841 65.000
63.08258 60.000
63.09675 70.000
63.11092 62.000
63.12509 53.000
63.13926 58.000
63.15343 57.000
63.16760 61.000
63.18177 46.000
63.19594 62.000
63.21011 66.000
63.22428 56.000
63.23845 66.000
63.25262 70.000
63.26679 53.000
63.28096 53.000
63.29513 61.000
63.30930 55.000
63.32347 58.000
63.33764 55.000
63.35181 56.000
63.36598 55.000
63.38015 57.000
63.39432 78.000
63.40849 60.000
63.42266 53.000
63.43683 46.000
63.45100 56.000
63.46517 52.000
63.47934 61.000
63.49351 55.000
63.50768 67.000
63.52185 61.000
63.53602 54.000
63.55019 54.000
63.56436 48.000
63.57853 69.000
63.59270 52.000
63.60687 45.000
63.62104 52.000
63.63521 53.000
63.64938 62.000
63.66355 65.000
63.67772 65.000
63.69189 64.000
63.70606 45.000
63.72023 65.000
63.73440 69.000
63.74857 41.000
63.76274 62.000
63.77691 59.000
63.79108 62.000
63.80525 57.000
63.81942 52.000
63.83359 51.000
63.84776 59.000
63.86193 72.000
63.87610 77.000
63.89027 52.000
63.90444 69.000
63.91861 66.000
63.93278 62.000
63.94695 54.000
63.96112 59.000
63.97529 56.000
63.98946 66.000
64.00363 63.000
64.01780 66.000
64.03197 68.000
64.04614 64.000
64.06031 50.000
64.07448 59.000
64.08865 67.000
64.10282 67.000
64.11699 62.000
64.13116 57.000
64.14533 57.000
64.15950 59.000
64.17367 56.000
64.18784 66.000
64.20201 52.000
64.21618 58.000
64.23035 56.000
64.24452 65.000
64.25869 64.000
64.27286 61.000
64.28703 60.000
64.30120 62.000
64.31537 69.000
64.32954 57.000
64.34371 66.000
64.35788 73.000
64.37205 81.000
64.38622 59.000
64.40039 49.000
64.41456 55.000
64.42873 67.000
64.44290 46.000
64.45707 67.000
64.47124 70.000
64.48541 55.000
64.49958 60.000
64.51375 63.000
64.52792 61.000
64.54209 56.000
64.55626 64.000
64.57043 60.000
64.58460 60.000
64.59877 62.000
64.61294 68.000
64.62711 59.000
64.64128 66.000
64.65545 72.000
64.66962 64.000
64.68379 60.000
64.69796 64.000
64.71213 52.000
64.72630 55.000
64.74047 62.000
64.75464 50.000
64.76881 64.000
64.78298 63.000
64.79715 57.000
64.81132 62.000
64.82549 78.000
64.83966 59.000
64.85383 63.000
64.86800 66.000
64.88217 57.000
64.89634 54.000
64.91051 70.000
64.92468 66.000
64.93885 63.000
64.95302 64.000
64.96719 64.000
64.98136 58.000
64.99553 59.000
65.00970 68.000
65.02387 59.000
65.03804 67.000
65.05221 70.000
65.06638 57.000
65.08055 56.000
65.09472 59.000
65.10889 69.000
65.12306 47.000
65.13723 63.000
65.15140 65.000
65.16557 59.000
65.17974 63.000
65.19391 62.000
65.20808 59.000
65.22225 65.000
65.23642 54.000
65.25059 58.000
65.26476 48.000
65.27893 69.000
65.29310 71.000
65.30727 58.000
65.32144 79.000
65.33561 64.000
65.34978 71.000
65.36395 78.000
65.37812 55.000
65.39229 71.000
65.40646 68.000
65.42063 64.000
65.43480 62.000
65.44897 61.000
65.46314 61.000
65.47731 61.000
65.49148 74.000
65.50565 75.000
65.51982 87.000
65.53399 86.000
65.54816 78.000
65.56233 78.000
65.57650 98.000
65.59067 72.000
65.60484 72.000
65.61901 77.000
65.63318 69.000
65.64735 80.000
65.66152 90.000
65.67569 81.000
65.68986 83.000
65.70403 69.000
65.71820 75.000
65.73237 78.000
65.74654 68.000
65.76071 82.000
65.77488 94.000
65.78905 83.000
65.80322 82.000
65.81739 98.000
65.83156 106.000
65.84573 101.000
65.85990 100.000
65.87407 104.000
65.88824 106.000
65.90241 108.000
65.91658 91.000
65.93075 93.000
65.94492 106.000
65.95909 115.000
65.97326 118.000
65.98743 116.000
66.00160 126.000
66.01577 118.000
66.02994 141.000
66.04411 119.000
66.05828 142.000
66.07245 140.000
66.08662 152.000
66.10079 156.000
66.11496 146.000
66.12913 176.000
66.14330 208.000
66.15747 200.000
66.17164 204.000
66.18581 199.000
66.19998 226.000
66.21415 261.000
66.22832 245.000
66.24249 265.000
66.25666 277.000
66.27083 339.000
66.28500 335.000
66.29917 376.000
66.31334 369.000
66.32751 442.000
66.34168 487.000
66.35585 518.000
66.37002 579.000
66.38419 619.000
66.39836 697.000
66.41253 715.000
66.42670 821.000
66.44087 887.000
66.45504 949.000
66.46921 1032.000
66.48338 1064.000
66.49755 1054.000
66.51172 1116.000
66.52589 995.000
66.54006 963.000
66.55423 879.000
66.56840 750.000
66.58257 720.000
66.59674 733.000
66.61091 673.000
66.62508 652.000
66.63925 705.000
66.65342 702.000
66.66759 692.000
66.68176 711.000
66.69593 634.000
66.71010 579.000
66.72427 506.000
66.73844 455.000
66.75261 392.000
66.76678 354.000
66.78095 370.000
66.79512 287.000
66.80929 268.000
66.82346 265.000
66.83763 220.000
66.85180 221.000
66.86597 200.000
66.88014 189.000
66.89431 177.000
66.90848 175.000
66.92265 167.000
66.93682 168.000
66.95099 160.000
66.96516 153.000
66.97933 143.000
66.99350 156.000
67.00767 118.000
67.02184 113.000
67.03601 116.000
67.05018 120.000
67.06435 128.000
67.07852 106.000
67.09269 112.000
67.10686 121.000
67.12103 106.000
67.13520 109.000
67.14937 113.000
67.16354 105.000
67.17771 105.000
67.19188 92.000
67.20605 108.000
67.22022 97.000
67.23439 106.000
67.24856 112.000
67.26273 102.000
67.27690 118.000
67.29107 108.000
67.30524 88.000
67.31941 105.000
67.33358 104.000
67.34775 117.000
67.36192 94.000
67.37609 107.000
67.39026 99.000
67.40442 106.000
67.41859 90.000
67.43276 103.000
67.44693 119.000
67.46110 122.000
67.47527 105.000
67.48944 119.000
67.50361 142.000
67.51778 126.000
67.53195 124.000
67.54612 138.000
67.56029 135.000
67.57446 128.000
67.58863 130.000
67.60280 152.000
67.61697 127.000
67.63114 130.000
67.64531 145.000
67.65948 155.000
67.67365 151.000
67.68782 161.000
67.70199 139.000
67.71616 154.000
67.73033 182.000
67.74450 175.000
67.75867 167.000
67.77284 202.000
67.78701 201.000
67.80118 219.000
67.81535 237.000
67.82952 229.000
67.84369 246.000
67.85786 282.000
67.87203 298.000
67.88620 291.000
67.90037 315.000
67.91454 337.000
67.92871 348.000
67.94288 408.000
67.95705 384.000
67.97122 446.000
67.98539 487.000
67.99956 516.000
68.01373 607.000
68.02790 623.000
68.04207 722.000
68.05624 796.000
68.07041 922.000
68.08458 950.000
68.09875 1018.000
68.11292 1135.000
68.12709 1272.000
68.14126 1410.000
68.15543 1474.000
68.16960 1517.000
68.18377 1645.000
68.19794 1539.000
68.21211 1472.000
68.22628 1389.000
68.24045 1213.000
68.25462 1183.000
68.26879 1038.000
68.28296 949.000
68.29713 924.000
68.31130 942.000
68.32547 899.000
68.33964 936.000
68.35381 957.000
68.36798 957.000
68.38215 924.000
68.39632 872.000
68.41049 793.000
68.42466 724.000
68.43883 600.000
68.45300 538.000
68.46717 470.000
68.48134 446.000
68.49551 376.000
68.50968 345.000
68.52385 333.000
68.53802 301.000
68.55219 284.000
68.56636 255.000
68.58053 237.000
68.59470 221.000
68.60887 218.000
68.62304 204.000
68.63721 199.000
68.65138 218.000
68.66555 168.000
68.67972 154.000
68.69389 176.000
68.70806 148.000
68.72223 158.000
68.73640 125.000
68.75057 166.000
68.76474 115.000
68.77891 133.000
68.79308 117.000
68.80725 107.000
68.82142 151.000
68.83559 91.000
68.84976 104.000
68.86393 108.000
68.87810 98.000
68.89227 94.000
68.90644 112.000
68.92061 116.000
68.93478 112.000
68.94895 114.000
68.96312 109.000
68.97729 108.000
68.99146 132.000
69.00563 128.000
69.01980 121.000
69.03397 119.000
69.04814 153.000
69.06231 152.000
69.07648 192.000
69.09065 182.000
69.10482 165.000
69.11899 156.000
69.13316 136.000
69.14733 143.000
69.16150 121.000
69.17567 88.000
69.18984 120.000
69.20401 94.000
69.21818 118.000
69.23235 99.000
69.24652 98.000
69.26069 114.000
69.27486 128.000
69.28903 122.000
69.30320 112.000
69.31737 100.000
69.33154 96.000
69.34571 96.000
69.35988 95.000
69.37405 70.000
69.38822 71.000
69.40239 80.000
69.41656 53.000
69.43073 74.000
69.44490 72.000
69.45907 58.000
69.47324 68.000
69.48741 63.000
69.50158 72.000
69.51575 75.000
69.52992 52.000
69.54409 56.000
69.55826 61.000
69.57243 61.000
69.58660 58.000
69.60077 63.000
69.61494 65.000
69.62911 63.000
69.64328 61.000
69.65745 63.000
69.67162 50.000
69.68579 60.000
69.69996 63.000
69.71413 67.000
69.72830 65.000
69.74247 47.000
69.75664 55.000
69.77081 56.000
69.78498 67.000
69.79915 48.000
69.81332 65.000
69.82749 58.000
69.84166 59.000
69.85583 43.000
69.87000 53.000
69.88417 64.000
69.89834 65.000
69.91251 64.000
69.92668 49.000
69.94085 53.000
69.95502 51.000
69.96919 51.000
69.98336 52.000
69.99753 42.000
70.01170 57.000
70.02587 50.000
70.04004 63.000
70.05421 68.000
70.06838 61.000
70.08255 58.000
70.09672 51.000
70.11089 63.000
70.12506 62.000
70.13923 57.000
70.15340 70.000
70.16757 65.000
70.18174 65.000
70.19591 48.000
70.21008 66.000
70.22425 74.000
70.23842 83.000
70.25259 69.000
70.26676 54.000
70.28093 83.000
70.29510 72.000
70.30927 74.000
70.32344 73.000
70.33761 81.000
70.35178 81.000
70.36595 84.000
70.38012 75.000
70.39429 96.000
70.40846 82.000
70.42263 84.000
70.43680 77.000
70.45097 67.000
70.46514 56.000
70.47931 71.000
70.49348 70.000
70.50765 65.000
70.52182 69.000
70.53599 61.000
70.55016 56.000
70.56433 80.000
70.57850 56.000
70.59267 82.000
70.60684 71.000
70.62101 75.000
70.63518 59.000
70.64935 75.000
70.66352 64.000
70.67769 70.000
70.69186 47.000
70.70603 52.000
70.72020 46.000
70.73437 53.000
70.74854 49.000
70.76271 65.000
70.77688 47.000
70.79105 61.000
70.80522 56.000
70.81939 53.000
70.83356 48.000
70.84773 54.000
70.86190 53.000
70.87607 52.000
70.89024 47.000
70.90441 50.000
70.91858 54.000
70.93275 57.000
70.94692 55.000
70.96109 56.000
70.97526 41.000
70.98943 44.000
71.00360 47.000
71.01777 38.000
71.03194 43.000
71.04611 58.000
71.06028 38.000
71.07445 50.000
71.08862 57.000
71.10279 52.000
71.11696 57.000
71.13113 40.000
71.14530 48.000
71.15947 46.000
71.17364 56.000
71.18781 47.000
71.20198 54.000
71.21615 52.000
71.23032 53.000
71.24449 53.000
71.25866 53.000
71.27283 51.000
71.28700 44.000
71.30117 45.000
71.31534 47.000
71.32951 38.000
71.34368 33.000
71.35785 56.000
71.37202 46.000
71.38619 56.000
71.40036 33.000
71.41453 45.000
71.42870 46.000
71.44287 44.000
71.45704 45.000
71.47121 48.000
71.48538 42.000
71.49955 50.000
71.51372 43.000
71.52789 44.000
71.54206 54.000
71.55623 40.000
71.57040 33.000
71.58457 47.000
71.59874 53.000
71.61291 45.000
71.62708 41.000
71.64125 53.000
71.65542 53.000
71.66959 55.000
71.68376 59.000
71.69793 43.000
71.71210 51.000
71.72627 55.000
71.74044 51.000
71.75461 47.000
71.76878 45.000
71.78295 46.000
71.79712 49.000
71.81129 53.000
71.82546 48.000
71.83963 40.000
71.85380 40.000
71.86797 63.000
71.88214 48.000
71.89631 53.000
71.91048 52.000
71.92465 41.000
71.93882 44.000
71.95299 49.000
71.96716 43.000
71.98133 35.000
71.99550 42.000
72.00967 48.000
72.02384 49.000
72.03801 46.000
72.05218 54.000
72.06635 43.000
72.08052 50.000
72.09469 44.000
72.10886 47.000
72.12303 49.000
72.13720 44.000
72.15137 40.000
72.16554 55.000
72.17971 40.000
72.19388 40.000
72.20805 37.000
72.22222 48.000
72.23639 46.000
72.25056 66.000
72.26473 51.000
72.27890 45.000
72.29307 54.000
72.30724 47.000
72.32141 44.000
72.33558 33.000
72.34975 47.000
72.36392 44.000
72.37809 40.000
72.39226 42.000
72.40643 37.000
72.42060 57.000
72.43477 40.000
72.44894 40.000
72.46311 37.000
72.47728 43.000
72.49145 35.000
72.50562 52.000
72.51979 48.000
72.53396 36.000
72.54813 55.000
72.56230 44.000
72.57647 57.000
72.59064 39.000
72.60481 51.000
72.61898 57.000
72.63315 46.000
72.64732 43.000
72.66149 39.000
72.67566 45.000
72.68983 50.000
72.70400 44.000
72.71817 46.000
72.73234 42.000
72.74651 39.000
72.76068 47.000
72.77485 49.000
72.78902 43.000
72.80319 44.000
72.81736 35.000
72.83153 43.000
72.84570 48.000
72.85987 41.000
72.87404 50.000
72.88821 41.000
72.90238 43.000
72.91655 55.000
72.93072 46.000
72.94489 46.000
72.95906 37.000
72.97323 52.000
72.98740 35.000
73.00157 40.000
73.01574 41.000
73.02991 41.000
73.04408 51.000
73.05825 38.000
73.07242 55.000
73.08659 29.000
73.10075 45.000
73.11492 38.000
73.12909 41.000
73.14326 40.000
73.15743 38.000
73.17160 47.000
73.18577 49.000
73.19994 48.000
73.21411 39.000
73.22828 47.000
73.24245 45.000
73.25662 42.000
73.27079 50.000
73.28496 47.000
73.29913 55.000
73.31330 47.000
73.32747 44.000
73.34164 43.000
73.35581 37.000
73.36998 44.000
73.38415 37.000
73.39832 53.000
73.41249 44.000
73.42666 40.000
73.44083 41.000
73.45500 43.000
73.46917 43.000
73.48334 45.000
73.49751 55.000
73.51168 43.000
73.52585 37.000
73.54002 45.000
73.55419 41.000
73.56836 41.000
73.58253 38.000
73.59670 44.000
73.61087 29.000
73.62504 41.000
73.63921 52.000
73.65338 52.000
73.66755 51.000
73.68172 37.000
73.69589 50.000
73.71006 43.000
73.72423 53.000
73.73840 41.000
73.75257 41.000
73.76674 42.000
73.78091 51.000
73.79508 34.000
73.80925 58.000
73.82342 46.000
73.83759 35.000
73.85176 54.000
73.86593 37.000
73.88010 44.000
73.89427 42.000
73.90844 51.000
73.92261 43.000
73.93678 50.000
73.95095 41.000
73.96512 35.000
73.97929 50.000
73.99346 58.000
74.00763 67.000
74.02180 57.000
74.03597 54.000
74.05014 40.000
74.06431 53.000
74.07848 65.000
74.09265 50.000
74.10682 61.000
74.12099 51.000
74.13516 70.000
74.14933 63.000
74.16350 67.000
74.17767 61.000
74.19184 60.000
74.20601 74.000
74.22018 70.000
74.23435 61.000
74.24852 63.000
74.26269 73.000
74.27686 84.000
74.29103 83.000
74.30520 82.000
74.31937 64.000
74.33354 72.000
74.34771 68.000
74.36188 54.000
74.37605 65.000
74.39022 67.000
74.40439 57.000
74.41856 66.000
74.43273 71.000
74.44690 65.000
74.46107 59.000
74.47524 61.000
74.48941 74.000
74.50358 78.000
74.51775 58.000
74.53192 64.000
74.54609 63.000
74.56026 57.000
74.57443 48.000
74.58860 53.000
74.60277 43.000
74.61694 46.000
74.63111 49.000
74.64528 53.000
74.65945 50.000
74.67362 54.000
74.68779 46.000
74.70196 34.000
74.71613 41.000
74.73030 56.000
74.74447 45.000
74.75864 46.000
74.77281 59.000
74.78698 56.000
74.80115 47.000
74.81532 45.000
74.82949 46.000
74.84366 44.000
74.85783 50.000
74.87200 50.000
74.88617 44.000
74.90034 39.000
74.91451 39.000
74.92868 43.000
74.94285 38.000
74.95702 44.000
74.97119 53.000
74.98536 54.000
74.99953 51.000
75.01370 47.000
75.02787 49.000
75.04204 33.000
75.05621 35.000
75.07038 51.000
75.08455 47.000
75.09872 40.000
75.11289 49.000
75.12706 46.000
75.14123 47.000
75.15540 50.000
75.16957 51.000
75.18374 56.000
75.19791 46.000
75.21208 46.000
75.22625 50.000
75.24042 38.000
75.25459 49.000
75.26876 53.000
75.28293 52.000
75.29710 57.000
75.31127 54.000
75.32544 36.000
75.33961 44.000
75.35378 41.000
75.36795 58.000
75.38212 43.000
75.39629 39.000
75.41046 40.000
75.42463 39.000
75.43880 47.000
75.45297 40.000
75.46714 45.000
75.48131 40.000
75.49548 38.000
75.50965 41.000
75.52382 35.000
75.53799 44.000
75.55216 34.000
75.56633 41.000
75.58050 45.000
75.59467 53.000
75.60884 54.000
75.62301 53.000
75.63718 36.000
75.65135 46.000
75.66552 46.000
75.67969 64.000
75.69386 51.000
75.70803 56.000
75.72220 49.000
75.73637 49.000
75.75054 43.000
75.76471 46.000
75.77888 54.000
75.79305 46.000
75.80722 44.000
75.82139 47.000
75.83556 53.000
75.84973 49.000
75.86390 59.000
75.87807 52.000
75.89224 39.000
75.90641 51.000
75.92058 53.000
75.93475 42.000
75.94892 60.000
75.96309 56.000
75.97726 55.000
75.99143 58.000
76.00560 60.000
76.01977 49.000
76.03394 49.000
76.04811 53.000
76.06228 54.000
76.07645 53.000
76.09062 58.000
76.10479 59.000
76.11896 43.000
76.13313 61.000
76.14730 56.000
76.16147 49.000
76.17564 57.000
76.18981 59.000
76.20398 73.000
76.21815 69.000
76.23232 81.000
76.24649 87.000
76.26066 62.000
76.27483 94.000
76.28900 97.000
76.30317 86.000
76.31734 103.000
76.33151 121.000
76.34568 119.000
76.35985 116.000
76.37402 132.000
76.38819 126.000
76.40236 123.000
76.41653 117.000
76.43070 112.000
76.44487 91.000
76.45904 96.000
76.47321 92.000
76.48738 102.000
76.50155 108.000
76.51572 109.000
76.52989 135.000
76.54406 130.000
76.55823 153.000
76.57240 142.000
76.58657 173.000
76.60074 160.000
76.61491 153.000
76.62908 170.000
76.64325 174.000
76.65742 186.000
76.67159 181.000
76.68576 214.000
76.69993 217.000
76.71410 216.000
76.72827 223.000
76.74244 240.000
76.75661 268.000
76.77078 303.000
76.78495 349.000
76.79912 362.000
76.81329 360.000
76.82746 382.000
76.84163 416.000
76.85580 376.000
76.86997 401.000
76.88414 351.000
76.89831 363.000
76.91248 325.000
76.92665 294.000
76.94082 279.000
76.95499 300.000
76.96916 252.000
76.98333 293.000
76.99750 258.000
77.01167 319.000
77.02584 284.000
77.04001 314.000
77.05418 294.000
77.06835 324.000
77.08252 318.000
77.09669 301.000
77.11086 331.000
77.12503 305.000
77.13920 321.000
77.15337 291.000
77.16754 285.000
77.18171 277.000
77.19588 278.000
77.21005 261.000
77.22422 261.000
77.23839 259.000
77.25256 230.000
77.26673 225.000
77.28090 180.000
77.29507 204.000
77.30924 176.000
77.32341 196.000
77.33758 169.000
77.35175 173.000
77.36592 169.000
77.38009 148.000
77.39426 162.000
77.40843 166.000
77.42260 192.000
77.43677 158.000
77.45094 148.000
77.46511 148.000
77.47928 137.000
77.49345 116.000
77.50762 112.000
77.52179 111.000
77.53596 94.000
77.55013 112.000
77.56430 94.000
77.57847 102.000
77.59264 80.000
77.60681 71.000
77.62098 83.000
77.63515 68.000
77.64932 72.000
77.66349 62.000
77.67766 70.000
77.69183 78.000
77.70600 51.000
77.72017 60.000
77.73434 59.000
77.74851 71.000
77.76268 55.000
77.77685 54.000
77.79102 62.000
77.80519 52.000
77.81936 59.000
77.83353 47.000
77.84770 52.000
77.86187 49.000
77.87604 37.000
77.89021 42.000
77.90438 47.000
77.91855 55.000
77.93272 47.000
77.94689 50.000
77.96106 57.000
77.97523 56.000
77.98940 48.000
78.00357 49.000
78.01774 55.000
78.03191 55.000
78.04608 51.000
78.06025 43.000
78.07442 41.000
78.08859 36.000
78.10276 43.000
78.11693 55.000
78.13110 48.000
78.14527 36.000
78.15944 37.000
78.17361 37.000
78.18778 51.000
78.20195 36.000
78.21612 45.000
78.23029 54.000
78.24446 50.000
78.25863 44.000
78.27280 39.000
78.28697 41.000
78.30114 49.000
78.31531 41.000
78.32948 46.000
78.34365 48.000
78.35782 52.000
78.37199 56.000
78.38616 41.000
78.40033 40.000
78.41450 32.000
78.42867 55.000
78.44284 52.000
78.45701 50.000
78.47118 34.000
78.48535 32.000
78.49952 38.000
78.51369 38.000
78.52786 41.000
78.54203 38.000
78.55620 49.000
78.57037 37.000
78.58454 40.000
78.59871 47.000
78.61288 51.000
78.62705 49.000
78.64122 35.000
78.65539 40.000
78.66956 39.000
78.68373 33.000
78.69790 40.000
78.71207 47.000
78.72624 41.000
78.74041 39.000
78.75458 46.000
78.76875 37.000
78.78291 36.000
78.79708 46.000
78.81125 49.000
78.82542 41.000
78.83959 43.000
78.85376 34.000
78.86793 40.000
78.88210 46.000
78.89627 34.000
78.91044 47.000
78.92461 39.000
78.93878 38.000
78.95295 43.000
78.96712 40.000
78.98129 36.000
78.99546 36.000
79.00963 49.000
79.02380 48.000
79.03797 48.000
79.05214 40.000
79.06631 36.000
79.08048 29.000
79.09465 38.000
79.10882 37.000
79.12299 45.000
79.13716 40.000
79.15133 42.000
79.16550 24.000
79.17967 44.000
79.19384 28.000
79.20801 42.000
79.22218 45.000
79.23635 42.000
79.25052 41.000
79.26469 45.000
79.27886 43.000
79.29303 49.000
79.30720 43.000
79.32137 39.000
79.33554 43.000
79.34971 44.000
79.36388 44.000
79.37805 32.000
79.39222 46.000
79.40639 41.000
79.42056 45.000
79.43473 36.000
79.44890 38.000
79.46307 42.000
79.47724 37.000
79.49141 40.000
79.50558 35.000
79.51975 37.000
79.53392 39.000
79.54809 38.000
79.56226 43.000
79.57643 41.000
79.59060 49.000
79.60477 37.000
79.61894 35.000
79.63311 44.000
79.64728 44.000
79.66145 48.000
79.67562 37.000
79.68979 35.000
79.70396 43.000
79.71813 41.000
79.73230 39.000
79.74647 42.000
79.76064 37.000
79.77481 46.000
79.78898 39.000
79.80315 40.000
79.81732 38.000
79.83149 34.000
79.84566 38.000
79.85983 39.000
79.87400 44.000
79.88817 45.000
79.90234 38.000
79.91651 40.000
79.93068 45.000
79.94485 39.000
79.95902 38.000
79.97319 37.000
79.98736 41.000
80.00153 47.000
80.01570 44.000
80.02987 39.000
80.04404 53.000
80.05821 39.000
80.07238 41.000
80.08655 52.000
80.10072 43.000
80.11489 58.000
80.12906 48.000
80.14323 40.000
80.15740 42.000
80.17157 48.000
80.18574 42.000
80.19991 42.000
80.21408 46.000
80.22825 57.000
80.24242 48.000
80.25659 53.000
80.27076 53.000
80.28493 71.000
80.29910 56.000
80.31327 58.000
80.32744 55.000
80.34161 73.000
80.35578 67.000
80.36995 70.000
80.38412 80.000
80.39829 81.000
80.41246 80.000
80.42663 81.000
80.44080 62.000
80.45497 80.000
80.46914 72.000
80.48331 91.000
80.49748 79.000
80.51165 98.000
80.52582 110.000
80.53999 98.000
80.55416 92.000
80.56833 106.000
80.58250 113.000
80.59667 126.000
80.61084 139.000
80.62501 155.000
80.63918 150.000
80.65335 177.000
80.66752 162.000
80.68169 157.000
80.69586 132.000
80.71003 127.000
80.72420 125.000
80.73837 117.000
80.75254 123.000
80.76671 102.000
80.78088 96.000
80.79505 94.000
80.80922 76.000
80.82339 99.000
80.83756 98.000
80.85173 102.000
80.86590 102.000
80.88007 101.000
80.89424 100.000
80.90841 96.000
80.92258 83.000
80.93675 79.000
80.95092 105.000
80.96509 90.000
80.97926 79.000
80.99343 71.000
