Co 350                                                                          
BANK       1    4941     494   CONST  1600.0     1.7     0.0     0.0         STD
    1006     987     987    1082    1085    1028    1025     983    1018    1047
    1020    1069    1039     998     998    1014     987     977    1053    1033
     992    1020    1021    1013    1022    1010    1024    1022    1036    1049
     997    1005    1014    1016    1026    1057    1060    1020    1008    1025
     972    1063    1014    1054    1003     994     981    1025     999    1015
     981     978     986     999     967    1018    1035    1021     995    1018
     969    1037    1099    1029     983    1017    1033    1026    1043    1056
    1052    1051    1005    1035     996    1056    1022    1011    1021    1009
     996    1020    1020    1013    1010    1060    1053    1020     996    1005
    1007     998    1007    1000    1038    1053    1096    1066    1065    1031
    1035    1065    1074    1075    1070    1073    1044    1046    1042    1029
    1009     958    1063    1045    1047     983    1022    1036    1070    1041
    1081    1035    1010    1032     990     975    1025     998    1012    1020
    1023    1026    1020    1031    1033     993    1001    1032    1060    1065
    1042    1041    1055    1014    1026    1042    1019    1012    1020    1033
    1077    1046     995    1006    1006    1034    1055    1013    1035    1019
    1052    1047    1058    1062    1039    1031    1058    1083    1026    1055
     994    1027    1005    1066    1090    1016    1012    1069    1044    1024
    1025    1031    1046    1034    1075    1036    1021    1062    1035    1020
    1026    1002    1033    1053    1061    1054    1056    1069    1029    1015
    1100    1073    1045    1008    1006    1039    1023    1062    1122    1093
    1075    1073    1025    1061    1052    1061    1066    1110    1118    1063
    1094    1101    1097    1087    1054    1108    1117    1111    1098    1283
    1300    1351    1501    1575    1661    1696    1632    1512    1336    1270
    1236    1145    1166    1125    1123    1145    1123    1099    1091    1132
    1093    1105    1093    1063    1094    1092    1108    1108    1044    1052
    1078    1066    1086    1087    1061    1072    1066    1080    1053    1071
    1112    1086    1093    1088    1048    1087    1039    1091    1096    1064
    1089    1126    1138    1122    1043    1123    1100    1106    1091    1091
    1144    1055    1070    1114    1102    1078    1074     991    1086    1082
    1043    1083    1072    1068    1091    1084    1089    1116    1070    1102
    1088    1098    1105    1101    1096    1117    1125    1129    1138    1111
    1056    1053    1101    1100    1097    1091    1083    1095    1101    1079
    1088    1120    1118    1129    1086    1129    1125    1085    1099    1118
    1181    1142    1146    1143    1129    1157    1182    1194    1124    1190
    1347    1362    1424    1490    1732    1917    2205    2642    2746    2800
    2545    2240    1946    1672    1476    1347    1286    1230    1223    1161
    1150    1150    1125    1117    1143    1095    1101    1136    1137    1134
    1138    1095    1084    1106    1089    1081    1099    1080    1079    1127
    1143    1158    1118    1086    1095    1083    1125    1027    1135    1158
    1068    1125    1097    1180    1117    1105    1153    1054    1036    1013
    1062    1113    1124    1093    1142    1125    1086    1104    1134    1086
    1082    1126    1139    1132    1110    1017    1030    1105    1135    1091
    1085    1078    1072    1087    1123    1096    1069    1083    1072    1075
    1084    1100    1087    1072    1104    1105    1086    1103    1087    1066
    1064    1082    1084    1098    1080    1114    1094    1125    1094    1114
    1114    1141    1102    1041    1131    1121    1084    1071    1109    1070
    1097    1147    1058    1041    1073    1135    1105    1068    1116    1128
    1134    1079    1073    1069    1048    1055    1102    1135    1090    1078
    1150    1141    1099    1091    1063    1073    1089    1113    1140    1112
    1103    1132    1117    1110    1095    1101    1151    1155    1108    1128
    1111    1100    1099    1141    1080    1086    1116    1090    1140    1083
    1095    1112    1110    1088    1072    1053    1128    1094    1100    1093
    1103    1088    1103    1155    1124    1108    1055    1106    1144    1089
    1074    1070    1122    1114    1097    1090    1069    1071    1078    1094
    1092    1105    1111    1112    1102    1069    1077    1073    1114    1118
    1088    1076    1103    1086    1061    1100    1120    1076    1074    1059
    1124    1114    1124    1065    1072    1134    1111    1094    1107    1124
    1114    1076    1100    1106    1137    1155    1118    1109    1115    1117
    1136    1135    1117    1105    1123    1163    1123    1080    1079    1060
    1061    1119    1087    1119    1108    1113    1090    1072    1096    1117
    1089    1088    1131    1150    1139    1133    1132    1132    1099    1086
    1102    1089    1105    1121    1084    1105    1091    1063    1047    1036
    1085    1103    1072    1149    1161    1145    1126    1154    1123    1108
    1121    1127    1086    1096    1121    1103    1110    1125    1106    1126
    1107    1117    1125    1107    1138    1106    1125    1117    1075    1115
    1165    1147    1078    1061    1095    1109    1123    1088    1081    1091
    1105    1154    1111    1061    1097    1097    1102    1091    1063    1046
    1054    1106    1125    1096    1091    1089    1101    1089    1124    1108
    1134    1149    1098    1084    1111    1168    1088    1086    1132    1101
    1158    1086    1087    1109    1083    1142    1111    1104    1107    1072
    1134    1136    1085    1115    1116    1114    1102    1106    1136    1102
    1114    1131    1080    1096    1129    1122    1069    1053    1084    1098
    1102    1101    1093    1121    1072    1114    1133    1145    1089    1091
    1111    1090    1081    1104    1082    1083    1136    1156    1098    1145
    1133    1126    1076    1151    1121    1120    1106    1114    1018    1089
    1078    1135    1084    1110    1155    1136    1154    1141    1160    1094
    1144    1138    1128    1082    1093    1104    1093    1111    1117    1119
    1105    1102    1113    1131    1164    1137    1178    1188    1121    1101
    1102    1071    1083    1101    1132    1116    1111    1046    1151    1141
    1064    1155    1130    1099    1166    1129    1099    1107    1118    1120
    1114    1046    1122    1140    1070    1135    1113    1116    1141    1138
    1137    1139    1122    1108    1133    1101    1124    1112    1092    1092
    1150    1101    1111    1184    1138    1168    1186    1145    1153    1163
    1159    1147    1159    1159    1137    1131    1172    1134    1126    1158
    1119    1111    1107    1111    1148    1141    1159    1152    1161    1178
    1152    1110    1217    1157    1125    1182    1183    1148    1211    1127
    1143    1044    1118    1159    1123    1185    1216    1230    1147    1113
    1101    1134    1189    1105    1085    1130    1143    1160    1139    1105
    1106    1104    1125    1127    1137    1167    1139    1141    1139    1119
    1095    1108    1137    1166    1140    1143    1172    1137    1114    1229
    1176    1068    1110    1182    1187    1139    1117    1139    1151    1149
    1244    1181    1137    1129    1203    1119    1135    1163    1172    1120
    1161    1151    1132    1136    1146    1133    1137    1188    1154    1175
    1166    1124    1128    1098    1119    1092    1072    1149    1176    1122
    1091    1135    1124    1104    1138    1189    1159    1117    1105    1135
    1117    1107    1154    1180    1159    1116    1108    1131    1138    1127
    1154    1175    1170    1221    1165    1184    1209    1234    1208    1162
    1221    1270    1175    1305    1246    1251    1382    1464    1520    1648
    1731    1895    2145    2247    2466    2425    2291    2060    1742    1673
    1550    1451    1381    1310    1309    1314    1262    1229    1237    1251
    1206    1195    1218    1247    1196    1179    1216    1193    1175    1201
    1179    1168    1171    1206    1201    1209    1223    1189    1145    1189
    1182    1146    1184    1202    1208    1204    1159    1223    1139    1172
    1191    1215    1173    1186    1208    1162    1165    1129    1156    1200
    1194    1155    1182    1155    1160    1168    1148    1146    1175    1175
    1149    1203    1156    1171    1203    1178    1152    1165    1181    1152
    1132    1139    1145    1137    1157    1179    1143    1188    1190    1181
    1209    1234    1224    1175    1171    1168    1147    1126    1150    1163
    1132    1173    1117    1138    1150    1159    1137    1173    1099    1183
    1182    1160    1212    1114    1170    1132    1133    1120    1141    1153
    1115    1172    1183    1157    1134    1132    1149    1179    1146    1160
    1187    1154    1166    1159    1141    1167    1187    1177    1163    1147
    1169    1169    1125    1113    1129    1144    1167    1139    1133    1117
    1172    1182    1186    1154    1158    1131    1126    1134    1194    1153
    1091    1105    1130    1193    1187    1137    1178    1181    1172    1191
    1145    1168    1157    1102    1152    1161    1242    1232    1217    1231
    1233    1118    1157    1158    1182    1170    1178    1191    1239    1179
    1173    1235    1239    1181    1173    1198    1278    1295    1275    1332
    1412    1437    1475    1585    1704    1823    2024    2358    2822    3216
    3751    4075    4124    3970    3688    3462    3159    2947    2538    2229
    1968    1674    1588    1560    1381    1384    1314    1253    1269    1213
    1321    1203    1188    1179    1137    1176    1194    1237    1145    1139
    1185    1118    1147    1192    1153    1130    1141    1149    1157    1158
    1127    1116    1092    1141    1164    1140    1164    1178    1150    1123
    1151    1146    1101    1138    1135    1135    1182    1160    1127    1149
    1141    1128    1173    1186    1140    1171    1116    1139    1150    1170
    1143    1171    1188    1225    1104    1141    1070    1115    1132    1126
    1107    1068    1159    1133    1116    1149    1120    1149    1131    1136
    1164    1158    1166    1164    1176    1200    1197    1167    1217    1219
    1216    1240    1268    1296    1344    1398    1402    1500    1691    1950
    2232    2524    2877    2923    2562    2282    2116    1862    1691    1587
    1467    1508    1461    1492    1390    1480    1468    1481    1447    1578
    1572    1652    1925    2092    2250    2558    3075    3520    3899    4278
    4376    4357    4075    3622    3141    2807    2416    2224    2008    1812
    1684    1637    1552    1460    1422    1368    1344    1419    1379    1318
    1318    1279    1281    1306    1255    1238    1249    1194    1234    1200
    1196    1274    1283    1245    1221    1210    1254    1251    1247    1220
    1211    1225    1275    1158    1159    1173    1163    1204    1215    1261
    1221    1284    1239    1231    1255    1264    1212    1270    1202    1219
    1181    1141    1183    1206    1210    1186    1199    1197    1183    1169
    1170    1160    1127    1123    1131    1177    1203    1186    1207    1210
    1222    1212    1241    1187    1133    1197    1222    1207    1206    1198
    1163    1212    1250    1236    1193    1160    1219    1219    1213    1207
    1283    1257    1269    1325    1380    1358    1380    1362    1284    1326
    1298    1284    1178    1166    1200    1204    1164    1183    1200    1200
    1179    1177    1172    1172    1177    1210    1174    1189    1209    1214
    1168    1197    1213    1173    1181    1201    1179    1171    1192    1220
    1219    1201    1169    1159    1205    1180    1182    1166    1181    1170
    1187    1175    1204    1203    1167    1186    1217    1147    1116    1143
    1145    1264    1171    1153    1166    1176    1234    1241    1243    1234
    1209    1177    1220    1221    1279    1229    1223    1184    1118    1188
    1206    1162    1157    1142    1110    1160    1172    1185    1206    1192
    1241    1258    1255    1216    1196    1188    1179    1185    1235    1265
    1257    1299    1349    1349    1392    1405    1484    1538    1616    1662
    1891    2104    2474    3018    3642    4542    5558    5872    5573    4884
    4360    4085    4216    3881    3449    2938    2355    2099    1960    1886
    1796    1894    1827    1910    1972    2014    2143    2296    2537    2853
    3243    3732    4379    5212    6161    7329    8321    9031    9378    9098
    8556    7958    7383    6883    6370    5484    4591    3903    3325    2854
    2471    2214    1988    1853    1775    1694    1559    1538    1487    1446
    1375    1361    1339    1342    1291    1327    1301    1314    1228    1282
    1213    1224    1207    1195    1246    1332    1184    1238    1233    1213
    1219    1214    1211    1169    1177    1232    1185    1206    1194    1161
    1174    1194    1210    1197    1151    1180    1187    1180    1139    1132
    1199    1236    1215    1170    1160    1242    1255    1234    1256    1234
    1253    1273    1260    1279    1370    1313    1357    1398    1383    1497
    1622    1746    1931    2184    2667    3286    3865    4211    4271    3889
    3260    2760    2473    2098    1907    1762    1663    1485    1475    1467
    1411    1351    1363    1325    1357    1399    1352    1341    1353    1384
    1400    1422    1495    1629    1767    1816    1811    1810    1765    1698
    1680    1619    1603    1568    1513    1433    1378    1345    1292    1227
    1196    1225    1201    1193    1204    1205    1171    1261    1208    1216
    1235    1143    1159    1208    1182    1189    1127    1254    1173    1180
    1203    1189    1194    1171    1160    1212    1210    1208    1246    1207
    1156    1190    1173    1186    1233    1219    1144    1173    1175    1152
    1155    1156    1164    1160    1158    1169    1160    1165    1174    1146
    1136    1169    1190    1180    1130    1113    1136    1140    1099    1114
    1141    1172    1179    1132    1110    1124    1127    1191    1196    1164
    1143    1141    1166    1107    1174    1215    1135    1096    1209    1236
    1175    1193    1167    1119    1124    1166    1163    1140    1153    1176
    1152    1148    1140    1172    1194    1216    1179    1199    1199    1175
    1212    1244    1213    1214    1261    1323    1368    1383    1389    1447
    1564    1631    1644    1677    1718    1774    1788    1758    1715    1681
    1585    1549    1354    1424    1367    1334    1268    1304    1193    1195
    1205    1280    1189    1199    1157    1222    1188    1148    1185    1141
    1134    1196    1150    1163    1150    1135    1113    1119    1170    1219
    1158    1152    1103    1092    1116    1150    1139    1138    1174    1152
    1156    1142    1114    1134    1163    1182    1137    1104    1169    1197
    1121    1085    1163    1134    1117    1119    1116    1142    1151    1150
    1112    1164    1160    1174    1119    1085    1092    1143    1155    1097
    1155    1133    1181    1136    1136    1149    1170    1117    1137    1150
    1100    1108    1149    1157    1127    1147    1123    1188    1215    1121
    1141    1212    1157    1145    1179    1168    1165    1217    1231    1203
    1172    1142    1156    1217    1243    1206    1247    1275    1259    1302
    1346    1340    1418    1494    1585    1586    1632    1770    1920    2122
    2535    2888    3522    4436    5678    6765    7181    6992    6182    5238
    4866    4690    4688    4509    4095    3345    2858    2253    1972    1792
    1691    1624    1542    1380    1371    1306    1280    1285    1288    1245
    1223    1221    1191    1185    1206    1187    1151    1150    1192    1194
    1166    1117    1147    1143    1124    1104    1180    1173    1127    1126
    1141    1126    1160    1180    1146    1126    1140    1139    1149    1097
    1141    1131    1137    1114    1158    1100    1148    1043    1087    1128
    1110    1149    1103    1148    1067    1111    1160    1162    1147    1133
    1136    1123    1126    1106    1118    1135    1133    1138    1098    1104
    1091    1130    1090    1083    1132    1129    1144    1137    1117    1090
    1154    1152    1145    1135    1145    1108    1104    1106    1096    1091
    1129    1146    1118    1124    1066    1133    1079    1139    1102    1117
    1109    1096    1133    1119    1174    1075    1130    1122    1132    1087
    1069    1134    1191    1099    1153    1105    1126    1159    1158    1163
    1176    1167    1127    1124    1155    1123    1132    1150    1126    1132
    1139    1156    1160    1132    1160    1185    1154    1163    1173    1175
    1165    1161    1191    1176    1195    1210    1219    1199    1246    1314
    1347    1339    1479    1466    1553    1617    1670    1774    1856    2028
    2186    2268    2309    2381    2563    2445    2495    2393    2275    2276
    2188    2113    2025    1901    1767    1657    1570    1503    1422    1379
    1301    1266    1324    1313    1268    1235    1197    1182    1208    1196
    1181    1187    1220    1183    1132    1137    1147    1179    1209    1178
    1151    1178    1158    1143    1150    1145    1111    1151    1195    1219
    1132    1161    1164    1118    1092    1149    1179    1101    1133    1166
    1113    1159    1149    1138    1152    1131    1193    1150    1141    1122
    1137    1169    1152    1165    1130    1153    1132    1184    1166    1143
    1155    1171    1162    1132    1129    1189    1193    1147    1146    1130
    1108    1179    1163    1095    1109    1171    1162    1099    1129    1195
    1109    1115    1107    1138    1162    1131    1178    1163    1128    1108
    1121    1171    1148    1159    1205    1181    1087    1102    1124    1168
    1151    1178    1155    1169    1157    1145    1121    1163    1159    1155
    1152    1168    1115    1113    1120    1136    1137    1164    1132    1079
    1123    1146    1166    1161    1147    1163    1161    1134    1130    1116
    1124    1139    1129    1127    1158    1175    1197    1161    1115    1129
    1153    1156    1117    1095    1158    1168    1104    1110    1146    1104
    1139    1147    1158    1164    1123    1152    1139    1120    1131    1213
    1149    1200    1130    1091    1130    1107    1072    1067    1110    1130
    1169    1148    1115    1095    1131    1114    1116    1113    1134    1112
    1131    1129    1109    1104    1105    1142    1142    1171    1155    1080
    1087    1134    1149    1121    1139    1106    1133    1142    1165    1153
    1097    1111    1168    1143    1137    1101    1138    1104    1155    1074
    1055    1074    1118    1070    1151    1142    1111    1131    1030    1080
    1115    1132    1143    1115    1108    1085    1093    1134    1180    1148
    1159    1153    1132    1169    1143    1117    1110    1077    1107    1103
    1109    1111    1123    1139    1130    1098    1108    1133    1096    1094
    1097    1088    1105    1130    1092    1093    1114    1098    1112    1143
    1077    1055    1128    1132    1122    1128    1078    1079    1118    1084
    1134    1089    1119    1113    1127    1134    1148    1055    1103    1150
    1111    1156    1186    1096    1077    1130    1119    1129    1136    1132
    1130    1137    1127    1155    1135    1095    1130    1093    1092    1127
    1152    1123    1097    1110    1117    1108    1105    1081    1083    1081
    1081    1087    1184    1118    1074    1145    1120    1053    1148    1072
    1110    1083    1177    1079    1103    1157    1082    1082    1053    1102
    1176    1155    1114    1109    1074    1121    1182    1111    1143    1149
    1147    1129    1121    1150    1173    1180    1186    1211    1221    1276
    1304    1318    1334    1304    1280    1290    1298    1286    1254    1220
    1211    1140    1096    1182    1175    1127    1113    1105    1115    1120
    1123    1072    1125    1128    1130    1131    1085    1128    1096    1148
    1150    1091    1119    1073    1084    1063    1122    1100    1105    1084
    1096    1073    1008    1045    1147    1087    1081    1121    1102    1114
    1142    1129    1079    1030    1086    1121    1119    1092    1091    1076
    1088    1083    1095    1115    1106    1137    1137    1108    1096    1086
    1074    1100    1086    1070    1114    1112    1095    1063    1112    1079
    1116    1138    1091    1084    1099    1078    1056    1122    1118    1125
    1123    1063    1130    1167    1113    1117    1145    1043    1078    1086
    1049    1055    1114    1098    1112    1082    1101    1070    1099    1116
    1082    1076    1080    1114    1131    1099    1093    1100    1131    1104
    1115    1118    1112    1113    1091    1118    1090    1118    1143    1097
    1103    1081    1098    1107    1081    1069    1073    1058    1044    1103
    1127    1103    1135    1103    1200    1071    1134    1083    1110    1120
    1119    1097    1120    1069    1047    1120    1133    1147    1125    1111
    1090    1076    1074    1070    1035    1036    1073    1125    1129    1080
    1090    1117    1102    1120    1081    1082    1112    1122    1111    1125
    1127    1091    1118    1154    1137    1136    1095    1100    1108    1097
    1099    1125    1119    1145    1132    1150    1132    1154    1174    1131
    1067    1123    1132    1072    1152    1176    1118    1136    1168    1112
    1117    1142    1181    1124    1173    1189    1164    1204    1190    1203
    1225    1178    1229    1257    1346    1343    1385    1481    1527    1520
    1568    1642    1749    1801    1827    1814    1794    1770    1722    1683
    1646    1590    1490    1461    1376    1349    1379    1330    1261    1263
    1247    1214    1145    1142    1126    1205    1228    1186    1165    1173
    1161    1186    1189    1104    1140    1169    1173    1160    1122    1121
    1134    1104    1191    1166    1144    1100    1175    1149    1141    1154
    1120    1135    1095    1137    1153    1163    1155    1126    1117    1105
    1122    1129    1117    1122    1111    1116    1125    1149    1132    1127
    1087    1105    1129    1136    1144    1138    1150    1133    1123    1151
    1129    1114    1152    1126    1096    1124    1055    1099    1140    1158
    1225    1171    1133    1199    1107    1145    1146    1109    1180    1127
    1085    1115    1125    1079    1127    1176    1164    1179    1163    1199
    1179    1181    1161    1152    1197    1200    1212    1270    1233    1251
    1288    1317    1342    1424    1526    1652    1829    2040    2179    2257
    2248    2106    1951    1827    1651    1596    1455    1391    1369    1290
    1284    1234    1284    1249    1177    1241    1199    1233    1187    1182
    1219    1138    1162    1154    1155    1198    1198    1202    1189    1180
    1165    1212    1226    1225    1224    1283    1311    1399    1451    1473
    1514    1581    1569    1583    1637    1615    1559    1500    1483    1453
    1465    1446    1441    1397    1367    1357    1324    1289    1252    1258
    1251    1235    1164    1150    1120    1124    1154    1147    1123    1152
    1152    1127    1107    1114    1147    1164    1125    1173    1131    1094
    1081    1157    1152    1044    1133    1108    1074    1071    1189    1136
    1151    1136    1094    1128    1173    1123    1120    1137    1131    1170
    1153    1111    1134    1128    1108    1117    1096    1095    1139    1148
    1143    1131    1137    1145    1142    1147    1152    1114    1125    1143
    1149    1123    1134    1133    1117    1119    1115    1085    1108    1120
    1125    1158    1098    1144    1203    1126    1117    1137    1139    1116
    1180    1098    1149    1146    1106    1109    1153    1163    1141    1196
    1097    1120    1186    1171    1125    1169    1160    1126    1164    1138
    1089    1106    1108    1114    1131    1094    1106    1130    1117    1116
    1116    1123    1138    1167    1143    1123    1075    1110    1150    1204
    1116    1071    1123    1103    1103    1142    1125    1090    1089    1084
    1115    1142    1172    1086    1150    1106    1072    1113    1159    1182
    1123    1148    1069    1059    1117    1128    1111    1086    1105    1118
    1172    1166    1164    1140    1109    1166    1168    1151    1125    1093
    1129    1180    1195    1192    1220    1187    1178    1216    1188    1174
    1234    1303    1345    1379    1296    1369    1439    1527    1571    1671
    1690    1796    1892    1965    1985    1945    1958    1874    1924    1795
    1707    1717    1649    1582    1501    1468    1422    1371    1383    1308
    1297    1309    1220    1266    1247    1312    1264    1185    1203    1197
    1209    1219    1222    1192    1193    1153    1154    1228    1199    1202
    1211    1193    1212    1235    1233    1221    1263    1269    1279    1330
    1358    1351    1329    1347    1423    1484    1567    1618    1621    1748
    1783    1933    2043    2148    2317    2364    2409    2663    2722    2823
    2775    2741    2678    2653    2530    2388    2482    2434    2227    2232
    2130    2065    1987    1923    1843    1682    1634    1520    1515    1439
    1363    1411    1330    1295    1322    1299    1249    1239    1213    1214
    1232    1211    1167    1172    1175    1134    1123    1127    1150    1151
    1147    1149    1146    1089    1123    1194    1183    1132    1108    1175
    1194    1150    1142    1201    1178    1184    1106    1110    1147    1160
    1192    1189    1123    1174    1092    1091    1132    1146    1152    1119
    1166    1123    1112    1172    1158    1126    1105    1107    1128    1121
    1114    1084    1120    1148    1130    1101    1090    1099    1138    1149
    1157    1120    1119    1102    1102    1118    1143    1129    1118    1129
    1096    1147    1104    1118    1085    1092    1117    1175    1142    1132
    1141    1133    1160    1190    1091    1147    1159    1146    1165    1166
    1208    1143    1164    1256    1172    1206    1298    1246    1307    1263
    1304    1307    1411    1460    1506    1557    1792    2027    2342    2760
    3122    3472    3624    3593    3383    2967    2639    2390    2341    2317
    2359    2444    2507    2487    2352    2125    1945    1820    1637    1455
    1346    1345    1340    1241    1229    1254    1194    1181    1193    1191
    1158    1211    1135    1148    1115    1090    1119    1166    1046    1147
    1135    1122    1138    1111    1147    1161    1110    1127    1115    1155
    1141    1154    1146    1102    1104    1139    1143    1107    1085    1126
    1074    1083    1115    1107    1139    1152    1177    1138    1106    1137
    1157    1138    1094    1079    1097    1075    1050    1086    1113    1068
    1079    1124    1092    1104    1114    1117    1140    1104    1091    1083
    1083    1187    1097    1081    1110    1139    1130    1116    1087    1080
    1136    1136    1114    1073    1127    1110    1067    1085    1096    1120
    1085    1123    1112    1084    1063    1049    1084    1152    1139    1103
    1131    1115    1109    1123    1126    1102    1103    1115    1098    1075
    1101    1162    1148    1069    1085    1097    1092    1129    1178    1084
    1103    1080    1083    1128    1052    1028    1070    1141    1132    1066
    1125    1084    1055    1106    1135    1097    1088    1094    1077    1114
    1075    1092    1074    1107    1072    1078    1088    1111    1128    1123
    1091    1095    1103    1095    1103    1104    1095    1083    1099    1136
    1139    1113    1054    1041    1039    1061    1134    1150    1086    1100
    1104    1118    1145    1109    1083    1061    1086    1056    1061    1096
    1117    1149    1048    1093    1045    1134    1074    1086    1176    1045
    1056    1114    1116    1095    1133    1188    1136    1019    1062    1124
    1100    1161    1114    1171    1151    1109    1099    1069    1095    1095
    1100    1152    1138    1097    1118    1101    1085    1085    1113    1076
    1088    1127    1109    1102    1117    1111    1080    1104    1110    1141
    1146    1114    1127    1132    1161    1110    1100    1118    1143    1139
    1151    1206    1168    1151    1239    1243    1208    1295    1257    1283
    1303    1326    1385    1398    1504    1532    1674    1720    1770    1866
    2036    2141    2364    2524    2634    2819    2966    3018    3029    2922
    2870    2851    2703    2544    2464    2451    2466    2480    2458    2398
    2304    2217    2075    1963    1946    1817    1731    1620    1555    1542
    1482    1531    1520    1524    1588    1558    1479    1434    1452    1359
    1350    1324    1248    1275    1294    1207    1209    1163    1177    1153
    1222    1177    1117    1122    1162    1175    1139    1139    1188    1107
    1125    1169    1111    1123    1165    1155    1108    1109    1138    1104
    1135    1135    1145    1182    1190    1201    1147    1107    1180    1198
    1154    1109    1100    1140    1145    1146    1148    1114    1131    1105
    1129    1169    1120    1138    1131    1132    1065    1095    1159    1122
    1107    1132    1127    1117    1136    1051    1078    1079    1124    1114
    1016    1105    1079    1065    1097    1098    1094    1122    1071    1078
    1120    1139    1105    1140    1117    1096    1093    1085    1100    1077
    1075    1109    1137    1119    1091    1105    1098    1098    1095    1100
    1106    1094    1087    1078    1095    1073    1065    1058    1063    1064
    1046    1071    1082    1067    1058    1065    1116    1058    1116    1095
    1109    1093    1107    1149    1127    1100    1143    1112    1106    1052
    1063    1110    1082    1045    1077    1061    1087    1068    1089    1072
    1091    1097    1071    1079    1080    1076    1079    1068    1088    1095
    1082    1089    1107    1092    1086    1120    1134    1170    1093    1074
    1100    1120    1129    1062    1076    1133    1089    1102    1130    1106
    1088    1098    1044    1106    1122    1079    1110    1129    1122    1088
    1066    1107    1098    1054    1084    1033    1025    1104    1097    1093
    1060    1093    1088    1100    1088    1071    1151    1136    1138    1137
    1159    1145    1084    1092    1093    1080    1106    1120    1153    1186
    1169    1157    1123    1107    1153    1180    1195    1173    1140    1164
    1163    1187    1206    1178    1183    1152    1166    1194    1182    1194
    1236    1228    1234    1221    1272    1328    1324    1296    1374    1397
    1480    1481    1465    1454    1466    1416    1345    1316    1318    1302
    1266    1213    1232    1240    1210    1158    1176    1155    1166    1154
    1161    1178    1135    1115    1154    1144    1130    1140    1110    1099
    1148    1136    1097    1092    1097    1094    1086    1088    1120    1145
    1096    1081    1105    1103    1063    1116    1134    1102    1084    1094
    1056    1087    1090    1111    1104    1165    1151    1089    1063    1106
    1085    1091    1094    1080    1097    1098    1116    1141    1094    1113
    1128    1153    1109    1073    1121    1151    1134    1125    1113    1128
    1122    1116    1105    1109    1117    1097    1119    1129    1101    1112
    1128    1114    1077    1105    1115    1084    1126    1124    1057    1115
    1099    1070    1075    1100    1078    1176    1118    1107    1099    1117
    1152    1108    1105    1064    1133    1122    1078    1154    1147    1092
    1151    1099    1085    1101    1061    1088    1086    1127    1092    1098
    1096    1119    1094    1079    1104    1118    1064    1062    1095    1106
    1112    1122    1133    1122    1093    1110    1120    1121    1082    1073
    1105    1114    1109    1054    1034    1082    1095    1090    1113    1037
    1048    1065    1058    1067    1066    1164    1098    1128    1095    1109
    1083    1190    1151    1058    1031    1070    1122    1074    1120    1142
    1102    1070    1089    1134    1088    1081    1068    1036    1075    1107
    1099    1076    1048    1090    1160    1107    1098    1097    1090    1127
    1114    1108    1103    1083    1086    1122    1106    1130    1134    1101
    1121    1106    1076    1093    1082    1123    1088    1072    1113    1177
    1092    1064    1114    1040    1147    1079    1110    1089    1164    1100
    1110    1094    1087    1116    1064    1113    1086    1056    1109    1144
    1115    1119    1076    1051    1080    1069    1091    1112    1096    1069
    1065    1095    1121    1102    1074    1110    1094    1065    1073    1107
    1092    1063    1056    1062    1102    1095    1075    1090    1132    1095
    1101    1083    1109    1086    1072    1070    1128    1081    1094    1073
    1033    1062    1065    1067    1095    1056    1126    1103    1097    1080
    1041    1089    1086    1055    1098    1072    1060    1084    1065    1086
    1070    1078    1084    1088    1120    1096    1076    1083    1112    1121
    1130    1117    1104    1079    1077    1091    1100    1137    1126    1100
    1093    1105    1105    1111    1141    1118    1122    1203    1209    1202
    1301    1257    1205    1320    1343    1495    1618    1672    1772    1894
    1989    1925    1876    1797    1750    1686    1528    1518    1479    1536
    1470    1478    1537    1561    1642    1584    1516    1517    1436    1366
    1311    1269    1215    1206    1177    1203    1217    1190    1188    1174
    1152    1126    1132    1108    1085    1119    1130    1145    1168    1138
    1131    1135    1176    1180    1163    1215    1154    1195    1253    1220
    1218    1188    1206    1184    1224    1190    1165    1168    1179    1185
    1205    1111    1192    1177    1220    1205    1178    1113    1172    1162
    1120    1179    1150    1153    1165    1133    1144    1113    1082    1078
    1086    1062    1121    1085    1108    1095    1098    1121    1115    1057
    1073    1081    1084    1090    1101    1105    1092    1144    1142    1077
    1078    1106    1111    1127    1141    1129    1095    1079    1100    1119
    1062    1079    1034    1081    1048    1140    1109    1073    1097    1112
    1082    1104    1070    1098    1080    1052    1052    1140    1085    1111
    1069    1098    1100    1107    1091    1075    1032    1087    1085    1067
    1064    1130    1102    1095    1070    1061    1107    1124    1106    1077
    1095    1100    1100    1124    1112    1092    1093    1127    1117    1096
    1040    1093    1078    1134    1103    1111    1138    1152    1120    1073
    1108    1113    1120    1127    1093    1040    1102    1085    1028    1091
    1127    1094    1130    1050    1090    1065    1088    1113    1113    1043
    1078    1093    1112    1136    1105    1064    1062    1080    1112    1149
    1163    1093    1111    1136    1142    1157    1134    1147    1130    1107
    1149    1174    1100    1090    1113    1098    1124    1117    1099    1087
    1060    1057    1063    1086    1152    1144    1075    1069    1094    1139
    1090    1059    1125    1079    1094    1059    1093    1114    1091    1120
    1119    1146    1074    1101    1115    1070    1097    1097    1123    1139
    1107    1120    1128    1084    1114    1123    1140    1127    1113    1104
    1119    1124    1097    1139    1137    1104    1102    1113    1134    1116
    1117    1154    1154    1139    1128    1152    1194    1175    1151    1186
    1255    1233    1196    1297    1296    1304    1297    1353    1496    1527
    1567    1616    1783    1871    1993    2085    2068    2055    2090    1969
    1855    1789    1662    1654    1618    1649    1555    1567    1617    1632
    1649    1696    1612    1610    1555    1485    1453    1342    1333    1331
    1293    1282    1277    1269    1261    1232    1203    1189    1185    1215
    1216    1179    1148    1138    1157    1140    1161    1173    1122    1198
    1128    1066    1119    1163    1116    1128    1162    1118    1140    1116
    1089    1130    1060    1154    1137    1097    1098    1101    1144    1135
    1131    1119    1198    1160    1168    1167    1177    1204    1173    1200
    1239    1186    1215    1241    1222    1220    1242    1257    1280    1272
    1244    1240    1262    1258    1233    1246    1226    1259    1244    1207
    1238    1221    1178    1197    1173    1156    1185    1130    1142    1188
    1197    1122    1170    1193    1164    1110    1090    1111    1088    1110
    1097    1166    1136    1085    1068    1109    1194    1098    1064    1007
    1121    1124    1072    1083    1075    1059    1076    1127    1112    1079
    1109    1101    1107    1070    1107    1107    1073    1100    1124    1092
    1080    1114    1109    1130    1109    1087    1082    1072    1075    1117
    1127    1092    1094    1086    1081    1081    1043    1042    1052    1123
    1169    1073    1081    1069    1084    1140    1059    1069    1070    1043
    1076    1102    1069    1083    1031    1069    1081    1099    1099    1060
    1082    1071    1026    1072    1087    1064    1119    1086    1097    1116
    1075    1106    1138    1143    1122    1086    1071    1048    1081    1102
    1092    1079    1068    1063    1055    1108    1104    1026    1060    1127
    1102    1076    1060    1028    1115    1089    1111    1139    1082    1067
    1106    1098    1081    1129    1099    1063    1077    1060    1108    1106
    1061    1105    1143    1099    1106    1099    1120    1164    1127    1127
    1158    1103    1111    1133    1113    1139    1122    1136    1167    1165
    1118    1107    1099    1090    1106    1086    1076    1105    1115    1122
    1122    1097    1058    1057    1062    1069    1099    1100    1084    1048
    1085    1062    1055    1078    1102    1069    1070    1079    1078    1096
    1145    1116    1101    1084    1082    1106    1109    1056    1128    1082
    1023    1115    1093    1109    1082    1043    1054    1066    1118    1071
    1079    1078    1125    1107    1075    1082    1110    1099    1068    1114
    1123    1082    1089    1137    1106    1089    1079    1081    1105    1107
    1098    1088    1096    1089    1115    1142    1116    1088    1158    1153
    1204    1109    1121    1142    1164    1165    1142    1094    1126    1144
    1147    1138    1126    1103    1138    1068    1125    1077    1074    1104
    1068    1091    1088    1077    1110    1084    1085    1168    1145    1084
    1067    1094    1078    1061    1107    1112    1106    1084    1069    1059
    1067    1079    1114    1144    1118    1123    1139    1119    1078    1109
    1068    1068    1114    1079    1087    1129    1115    1129    1111    1140
    1106    1102    1092    1059    1155    1192    1108    1134    1188    1117
    1134    1218    1121    1153    1234    1179    1219    1156    1229    1276
    1196    1202    1278    1258    1273    1251    1210    1206    1208    1169
    1152                                                                        
