Co 880                                                                          
BANK       1    4941     494   CONST  1600.0     1.7     0.0     0.0         STD
     744     752     701     750     743     724     817     753     770     694
     769     748     736     752     759     764     744     727     778     797
     773     764     776     773     746     727     791     771     746     737
     740     753     744     741     747     758     758     739     721     720
     760     769     754     755     754     721     725     739     788     738
     742     730     733     736     760     739     781     713     769     742
     689     705     749     782     712     722     763     783     764     760
     696     739     744     720     742     757     750     750     769     744
     759     771     770     753     739     730     723     724     779     770
     745     748     709     706     733     748     744     711     739     742
     717     713     752     765     762     734     740     756     757     757
     738     710     759     735     765     758     750     750     719     753
     755     731     762     785     721     727     774     714     755     729
     765     711     743     719     746     785     774     765     775     743
     713     735     749     768     777     738     749     748     738     725
     762     769     766     749     761     762     784     733     722     755
     732     776     789     717     786     826     789     733     769     788
     778     729     743     768     750     745     731     752     758     733
     768     769     711     729     748     762     732     789     767     762
     747     755     764     754     739     741     746     741     745     746
     750     762     750     760     782     794     783     764     732     741
     763     787     796     772     755     741     725     742     750     759
     802     791     795     787     773     798     765     799     826     794
     803     882     829     934    1069    1238    1441    1643    1646    1480
    1410    1158    1064     979     970     852     812     783     839     826
     780     796     791     793     783     793     799     794     791     773
     790     794     801     800     797     790     761     761     817     799
     800     801     795     754     797     766     821     820     790     805
     759     772     776     761     761     764     754     833     782     790
     807     774     762     809     778     755     774     748     790     777
     758     748     747     815     815     757     809     787     765     728
     769     778     795     757     761     757     783     784     778     798
     834     834     827     808     784     764     762     802     840     804
     795     821     747     749     806     808     761     777     781     767
     817     795     780     800     769     790     734     743     806     881
     819     831     853     972     985    1092    1204    1459    1788    2255
    2750    2906    2968    2734    2308    2011    1628    1322    1174    1029
     904     872     829     817     836     826     828     818     817     810
     772     793     803     821     867     827     805     796     829     792
     785     792     807     742     779     741     740     840     809     749
     777     838     752     777     772     809     757     779     748     767
     821     767     814     808     804     799     786     798     770     778
     789     763     770     801     804     804     787     805     789     771
     778     776     737     745     784     783     799     778     762     789
     821     800     830     817     794     795     795     775     774     829
     792     782     755     775     754     812     791     781     808     842
     802     821     779     790     796     793     815     726     792     808
     827     761     793     811     803     800     815     791     821     818
     787     784     804     811     798     772     758     771     756     771
     799     795     787     811     843     809     790     813     804     822
     802     781     751     777     803     810     792     773     825     790
     743     767     802     833     827     809     824     796     775     759
     766     842     747     779     792     817     799     818     809     782
     813     782     784     754     798     831     831     820     811     814
     814     816     826     787     777     804     826     810     782     804
     789     805     822     815     843     809     790     832     846     789
     768     793     797     784     813     780     790     775     817     786
     834     837     843     858     826     865     770     826     815     807
     826     802     852     789     770     819     799     792     798     828
     853     813     811     861     811     807     820     819     834     844
     811     812     799     810     827     825     815     847     860     833
     825     800     766     813     814     812     806     816     807     812
     779     808     777     802     836     799     848     838     800     826
     795     795     837     823     818     838     854     803     866     808
     869     806     777     790     767     788     781     804     831     855
     812     800     803     851     825     808     802     815     806     795
     837     824     779     802     808     818     824     814     807     837
     801     809     822     822     836     803     788     816     815     842
     845     828     807     798     857     847     854     877     772     785
     860     807     819     826     802     814     821     838     853     814
     757     839     830     858     844     877     827     831     852     821
     858     852     838     847     831     827     855     819     837     826
     807     828     844     866     846     834     851     849     853     816
     829     861     848     866     865     870     854     879     902     843
     875     895     835     852     855     850     781     860     832     823
     828     855     838     829     845     816     862     859     862     844
     886     905     841     800     859     870     817     847     872     869
     857     855     837     838     875     869     874     915     892     857
     825     848     843     840     838     837     853     848     894     879
     890     953     895     880     880     838     881     921     878     892
     905     917     887     890     851     879     934     811     837     879
     855     865     927     808     896     871     904     896     808     837
     892     896     902     866     870     895     882     888     881     838
     858     896     894     895     865     863     882     879     887     922
     901     830     854     898     892     905     889     864     906     927
     908     888     887     888     898     917     897     898     935     880
     893     870     913     874     901     935     885     855     922     927
     926     939     885     872     895     927     889     901     947     916
     925     902     912     885     888     896     883     896     901     884
     901     907     898     889     870     892     928     919     894     910
     916     913     914     900     918     928     923     929     924     926
     911     893     909     914     909     908     917     893     907     917
     930     913     929     912     861     916     935     944     848     965
     877     902     939     937     956     955     950     887     907     911
     896     882     954     907     910     886     901     938     937     922
     907     910     938     942     924     916     909     907     917     889
     925     937     952     942     899     940     935     929     984     961
     971     899     937     938     950     965     897     936     984    1020
    1020     956    1035     997    1018    1050    1029    1037    1126    1237
    1369    1551    1943    2476    2933    2895    2747    2501    2096    1846
    1596    1454    1321    1184    1152    1109    1053    1037    1006    1008
    1012     986     998    1028    1009     982     988    1005    1021    1039
    1021    1027    1021     975    1004     980     987     982     940     936
     991     973     949     968     990     970     917     986    1021     941
    1004     948    1010     983     992    1020     988    1020     938     951
     925     961     988     982     959     961     959    1003    1000     952
     939    1003    1026    1000     974     961     947     930     924     930
     979     973     960     992     988     950     909     916     948     973
     963     948     994     994     945     969    1001    1011    1029     960
     920     925    1007     938     929     923     987     876     971     918
     939     943     946     938     975     905     915     948     979     973
     913     940     958     919     897     927     970     994     962     966
     968     951     935     940     954     962     969     961     946     958
     972     957     971     959     936     948     962     985     961     961
     942     951     932     937     977     987     951    1010     962     963
     974     973     993     932     914     956     987     908     923     956
     970     937     952     951     987    1000     989     957    1004     985
     950     940    1003    1038     996     971     980     956     936     943
     928     914     957     960     952     976    1013    1034    1047    1062
    1095    1126    1149    1163    1300    1443    1722    2066    2741    3779
    4868    5605    5623    5203    4799    4714    4410    3876    3031    2403
    2024    1703    1461    1305    1198    1024    1021    1048    1022    1010
    1041     964     951     973     986    1019     989     955     968    1007
     983     957     950     973     990     949     968     997     956     941
     944     952     952     946     952     948     943     987     988     958
     965     961     941     904     977    1017     984     955     921     909
     969     964     939     898     943     931     930     974     931     935
     984     949     909     960     951    1002     962     915     938     963
     949     946     980     924     928     885     913     898     928     966
     967     989     972     937     887     916     945     966     980     963
     965    1004    1011    1015    1044    1106    1157    1279    1350    1292
    1251    1151    1110    1140    1076    1063    1034    1043     997    1055
    1034     972    1133    1126    1176    1146    1161    1155    1154    1176
    1238    1327    1415    1656    1995    2586    3477    4638    5814    6710
    6714    6220    5413    4453    3796    3214    2529    2106    1867    1651
    1502    1386    1321    1255    1205    1201    1191    1143    1111    1098
    1095    1079    1079    1079    1074    1052    1056    1073    1041    1069
    1058    1034    1078    1052    1062    1105    1067    1081    1053    1035
    1087    1078    1069    1042    1049    1023     986    1056    1010    1067
    1065    1039    1076    1046    1050    1055    1009    1019    1016    1042
    1032    1043    1014    1035    1034    1032     995     983    1061     991
     999    1052    1038    1029    1013    1055    1043    1048    1039    1041
    1012     998    1028    1034    1008     991    1001    1009     993     996
     985     997    1052    1017    1008    1042    1006    1017    1008    1050
    1084    1123    1223    1249    1239    1225    1308    1228    1219    1166
    1067    1095    1091    1057    1068    1030    1027     999    1027    1034
    1046     984     978    1041    1000    1020    1054    1009    1007    1011
    1017    1051    1015     985     973     962     986    1006    1000    1058
    1025     990     977     978    1009    1044    1052    1057    1037    1030
    1024    1020    1040    1018     952     981     989     998    1013    1013
    1001    1034     932     964     978    1009    1050    1051     978    1040
    1033    1026    1018     983    1023     989    1029    1028    1047    1027
     976    1022     988    1033    1030    1010     991     987     997    1017
     977     971     999    1032    1029     990    1003    1027    1026    1034
    1046    1074    1066    1013    1094    1043    1126    1244    1361    1522
    1760    1813    1754    1672    1615    1665    1540    1566    1478    1402
    1308    1209    1132    1178    1069    1158    1121    1088    1141    1200
    1166    1239    1304    1388    1500    1520    1582    1744    1888    2209
    2649    3512    5145    7458   10421   13357   14899   14819   13612   12472
   11940   11461   10474    8909    7099    5584    4375    3431    2811    2275
    1841    1618    1483    1420    1342    1197    1205    1197    1214    1161
    1132    1085    1073    1059    1102    1055    1054    1050     983    1009
    1031    1039     984     990     992    1002    1038    1026    1035    1031
    1023    1026    1036    1038    1058    1018     987     986     991     988
     999     982     970     973     963    1010     988     999    1019     984
     960     984     992     970    1031    1051    1006    1008    1030     991
    1011    1031    1049    1062    1072    1074    1113    1213    1298    1396
    1538    1718    1743    1648    1627    1537    1362    1308    1295    1198
    1153    1144    1139    1009    1012    1039    1016    1006    1084     997
    1019    1051    1043    1044    1112    1062    1065    1102    1119    1198
    1352    1511    1725    1915    2003    1975    1829    1703    1702    1737
    1674    1539    1420    1321    1192    1128    1129    1078     998    1032
    1030    1035    1011    1012     987     932     964     983     995     975
     955     942     996    1021     948     999     969    1009    1021     975
     925    1014     998     973     972     957     912     959     953     974
     977     999     974    1013     996     943     935     939     969     995
     988     999     998     996     996     967     957     939     967     959
     952     994     980     973     961     943     960    1009     949     960
     967    1008    1014     996     999     925     950     964     991     937
     951     947     991     991     903    1001    1007     966     935     955
     991     976     970     974     990     954     967     971     998     990
    1028    1006     982     947    1017    1019    1026    1002     999    1009
    1009    1029    1037    1058    1100    1090    1064    1169    1315    1502
    1711    1919    2152    2243    2226    2144    1959    1877    1659    1518
    1383    1309    1272    1177    1129    1078    1059    1069    1059     999
    1080    1046    1045     989     993     947     978     991     982     963
     926     974    1004     979    1045    1030    1006    1007     971     928
     968     976     978     995     958     953     950     960     979     975
     962     981     999    1007     969     964     959     951     982     930
     954     974     991    1000    1017     982     964     990    1007     993
     995     969     960     948    1008     968     956     908     957     929
     991     954     968     967     950    1001     958     968     971     974
     953     933     921     947     985     920     941     973     965     971
     951     981     970     981     970     932     947     958     950     954
     971     994    1011     993     991     979     985    1002    1015    1024
    1029    1008    1050    1120    1266    1419    1662    1877    2184    2249
    2050    2011    1933    1811    1882    1907    1798    1652    1385    1301
    1207    1208    1108    1093    1129    1058    1000    1023     997    1019
     973    1010     963     999     997     971     941     989     984     934
     919     926     966     984     961     959    1005    1029    1010     993
     980     979    1003     967     984     979     961     965     970     973
     964     939     963     955    1023     996     953     991     969     947
     978     987     915     876     965     960     953     962     944     955
     949    1024     966     935     961     948     964     967     970     971
     959     965     933     923     948     973     940     904     931     935
     917     918     934     937     976     990     964     962     985     994
     975     968     973     941     947     986     986     928     904     933
     930     878     926     986     985     965     986    1018     937     935
     987     971     952    1004     939     944     990     973     981     950
     937     989     994    1010     939     982     972     966     961     963
     954     954     976    1015    1043     985     996     995     986     966
     982     980     993     991     993    1008     991    1024    1040    1027
    1005     997     982    1009    1060    1058    1068    1052    1115    1095
    1128    1164    1243    1334    1444    1601    1876    2271    2730    3102
    3448    3491    3431    3164    2911    2824    2845    2668    2574    2385
    2111    1880    1724    1520    1417    1263    1164    1122    1081    1062
    1041    1029    1044    1016    1042    1025    1036    1052    1021     977
     949     963    1037    1039     982     978     971     984    1027    1016
     995     947     951     995    1028    1024     975     978     966     979
     971     989    1040     997     967     938     982     984    1039     978
     991     982    1020    1000     997     983     969     967     984     981
     988     958    1010     970     950     951     992     983     985     972
     965     928     967     999    1015     972     981     986     964     930
     962     979     987     989     969     993    1008    1031    1021    1016
     968    1011    1017     986     977    1018     938    1004     981     960
     976    1031     984     975     972    1020     949    1012    1026    1045
    1104     960     969    1049     989     973     991     974    1008     982
     991    1028     992     979    1003    1014     997    1000    1005    1000
    1000    1013     975     985     997     981     987     988     981     965
     961     961     945     963     985     989     970     984     990     997
    1022     973    1041    1041    1006     983     984     954     952    1032
    1000     971     982     936     944     989     931    1001     989     982
    1004    1000     963     972    1038    1002     952     981    1013     973
     990     982     980     945     948    1005     988     951     942     968
     988     977     985     968     957    1003     988    1012    1019     967
     935     949     987     989     984     986     993     989     947     976
     997     976     963     949     920     932     924     951     988     921
     971     931     929     963    1000     969     977     958     923     979
     918    1007    1025     968     948    1010    1017     949     971    1006
    1007     962     941     948     942     961     952     950     956     984
     975     970     972     939     935     945     960     972    1006     976
     987    1028    1004     951     968     939     930     940     992     971
     995     978    1011     980     948     971     955     983     955     978
     931     891     928     978     965     956     988     992     946     999
     984    1056    1015     991     979     971     969     956     983     974
     998     975     918     977     991    1006     980     931     946     951
     979     984     981     971     964     976     971     967     961     951
     949     979     952     955     967     954     971     947     938     946
     974     908     933     946     958     967     944     963     978     952
     937     950     996     967     981     979     917     969     994     979
     976     972    1026    1058    1131    1177    1209    1284    1287    1292
    1232    1193    1153    1142    1104    1091    1063    1042    1057    1010
     990    1003     995    1007    1033     984     949     989     979     965
     940     962     973     972     975     974     955    1004     953     917
     959     977     999    1017     946     912     980    1001    1013     954
     877     966     929    1008     976    1018     991     951     949     959
     951     948     950     987     965     942     957     989     960     945
     948     965     971     952     956     952     918     915     946     960
     969     950     988     975     954     952     966     969     983     981
     955     955     944     963     962     980     989     988     941     949
     981     944     977    1005     966     991     947     949     956     990
     931     931     937     961     954     977     970     953     990     987
     970     977     981     964     997    1006     945     939     951     975
     984     994     971     959     967     976     968     963     966     968
     991     997     996     987     934     937    1003    1003    1006    1053
     994    1005     970     996     947     975     927     956    1044    1010
     934     990     937    1058     920     982     969     919     944     956
     969    1016     941     942     970     956     954     953     976     994
     968     980     947     982     984     999    1014     987     970     934
     954     962     944     934     964     975     977     978     964     981
     960     956     991     984    1002    1064    1072     972     970     987
     977    1003    1007    1017    1040    1011    1035     998    1003    1006
    1042     985     990    1073    1025     979    1078    1111    1078    1064
    1105    1210    1231    1328    1515    1714    1932    2186    2314    2368
    2306    2132    1949    1866    1751    1624    1498    1425    1362    1308
    1246    1202    1122    1063    1074    1066    1060    1048    1011    1036
     984     995    1021     991    1043    1043    1016     984     980     983
     981     980     994     978    1046     998     998     934     943    1030
     978     939     986    1018     991     955    1013     954     928     971
    1007     988    1002     990    1002     987     950    1020    1005     966
     968     974     979     959     962     989    1015     960     946     962
     979     983     965     989    1010     984     992     982     961     983
     986    1011    1016     965     980    1017     985     927    1000     946
     986     992    1032     957     973     968     981    1043    1041    1000
     985    1056     996    1005     999    1008    1035    1027    1008     966
    1054    1038    1079    1143    1222    1298    1293    1303    1252    1241
    1192    1168    1132    1101    1085    1040    1030    1030    1054    1036
    1031     996     980     997     976     964     980    1011     984     963
     938    1006     996     996    1033     995    1061    1022    1043     985
     945     959    1019    1029    1024     976    1035    1066    1075    1112
    1114    1195    1400    1489    1642    1810    1797    1762    1646    1533
    1556    1457    1444    1440    1501    1463    1437    1372    1276    1212
    1164    1141    1103    1086    1058    1024    1015    1011    1018    1014
    1016    1020     996     989     962     973    1006    1036    1018     982
     988     954     972     975     958     924     990     990     955    1034
    1044     989     929     974    1069     951     941     992     960     967
    1017    1014     957     970     934    1011     995     996     953     955
     965    1003    1041    1031    1017     989     994     947     958    1004
     979     952     962     962     950     968     996     962     968     965
     973     972    1010     983     964     996     994     953    1010    1016
     955     991    1114    1004     960     950    1044     984     955     991
    1000    1023    1000    1023    1025     966     966    1065     987     970
    1010    1023     983     947     973     951     967    1002     981     931
     954     953     997    1030     986     962    1005    1030    1001    1001
     987     956     969     945     986    1018     980     971    1014    1030
     986     976     998    1019    1016     974     945     958     987     962
     937    1022    1007     942    1000    1008    1013     997     991    1025
     963    1024    1018    1069     939    1037     983    1005     990    1009
    1005    1044     990     953    1000    1006    1015     958    1004     963
     991    1026    1029    1043    1051    1085    1128    1170    1171    1205
    1285    1384    1603    1879    2146    2334    2499    2507    2389    2286
    2120    1947    1842    1689    1558    1430    1351    1282    1311    1259
    1199    1075    1171    1096    1047    1110    1072    1034     974    1049
    1073     990     992    1062    1036    1014    1034    1079    1062    1082
    1042    1075    1054    1051    1067    1046    1089    1056    1012    1029
    1099    1090    1080    1103    1124    1114    1096    1103    1143    1177
    1215    1302    1362    1428    1586    1806    2152    2636    3198    3847
    4177    4450    4269    3933    3563    3265    2939    2887    2822    2947
    2951    2920    2802    2624    2363    2031    1936    1751    1528    1449
    1372    1267    1202    1127    1112    1086    1077    1049    1047    1005
    1047    1060    1016    1028    1045    1047    1037    1026    1021     998
     994    1017    1014    1009     990     989    1024    1008     988     964
    1009    1011    1009    1003     988     977     998    1019    1012    1041
    1020     983    1003     968     983    1031    1013    1020     982     941
     981     996    1018     961     982     956    1005    1039     990     986
    1050    1057    1065    1006     983     961     952     999    1014     985
     980     969     988     953    1006    1016     970     953     982    1003
    1005     995     998    1025    1029    1026    1026     991     993    1007
     982     972     993    1005     970     946     936     989    1016    1029
    1003     987    1009    1042    1014     982     964    1016    1019    1045
    1056    1234    1181    1270    1438    1546    1555    1644    1586    1503
    1349    1326    1279    1265    1281    1297    1347    1337    1310    1295
    1274    1199    1166    1137    1085    1019    1005    1036    1051    1047
     999    1007    1017     997     995     985     992     957     974     934
     970    1008    1050    1003     966     965    1009     967     972     961
    1017     975     947     943    1036     941    1056     950     949     952
    1020     944    1000     922     981     994     980     979    1004    1000
     976     976     970     968     986     980     998    1000     965     946
     983     999     998     978     942     973    1012     974     973     969
     970     995     985     985     969     949     961     930     950     962
     970     976    1007     948     993     960     933     965     994     954
     979     924     941     946     948     985     950     974     979     971
     954     994     989     944     983     934     947     981     915     912
     966     975     966     971     983     974     974     964     950     969
    1023    1011     999     998     954     972     971     941     927     911
     957     983     966     943     944     967     935     917     974     991
     985     963    1000     980     971     934     931    1015     949     934
    1000     988    1011     968    1047     973     962     993     974     999
     939    1018     974     914     974     940     972     966     984     973
    1001     994     979     959     921     963     942     938     961     989
     982     978     962     971     965     949     953     947     965     959
     973     983     980     994     993     976     957     957     981     954
     972     994     929     953     967     919     998    1003     934    1001
     973     961     932     981    1026     901     965     973     955     994
     953     936     991     978     993    1003     994     964     992     954
     959     972     983     992     986     961     971    1006     971     920
     989    1037     998     942     953     961     996     975    1009     982
    1007    1035    1018    1019    1007    1039    1033    1000    1008    1040
    1071    1097    1101    1093    1141    1191    1204    1283    1298    1409
    1551    1726    2144    2743    3255    3814    4246    4441    4246    3907
    3486    3055    2757    2616    2547    2546    2711    2915    2969    2815
    2617    2332    2150    1980    1741    1555    1434    1383    1332    1246
    1183    1138    1154    1152    1089    1082    1083    1042    1031    1028
    1013    1032    1013     964    1009     987     985    1018     993     951
     966     973    1001    1005    1000     986     993     998     963     923
     955     979    1008     891     954     991     960     965     987    1052
    1030     996     991     997    1004    1018    1022    1024    1073    1049
    1054    1010    1025    1017    1036    1001     981     996     971     960
     980     962     955     975     984     994     957     930     945     952
     940     986     954     973    1022     979     932     975     964     981
     983     943     918     961     957     953     958     990     908     993
     970     988     963     949     945     984     974     973     960     983
    1002     990     984    1001     995     969     932     973     980     986
    1007     970     979     993     970     972     980     977     978     957
     986     999    1007     990     948     919     963     970     971     960
     969     976    1002    1046     944     955     904     994     969     975
     976    1019     951     974     947     918    1002     937     951     963
    1010    1034     987     948     933     977     962     959     986     965
     950     943     977     995     994     982     954     951     982     960
     930     950     966     992     985     977     953     959     983     956
     982     977     959     985     984     955     973     967     967    1010
    1000    1005     937     916     950     932    1021     943     975     966
     972     959     904     993    1009     973     953     924     948     973
     991     971     980     940     939     990     994    1011    1031    1034
    1031    1012    1027    1093    1114    1135    1159    1116    1101    1119
    1095    1034    1049    1065    1050    1074    1105    1156    1142    1137
    1137    1139    1116    1109    1142    1146    1088    1134    1162    1203
    1166    1199    1194    1218    1207    1146    1152    1053    1113    1060
    1076    1030     985     989     992     998    1033     970     987    1005
     988     974    1001     954     991     963     994     969    1008    1010
     988     968     978     963    1013    1027     992     954     951     977
     963     965    1001     982     947     926     980     992     960     908
     935     963     960     961     985     999     985     961    1010     966
     979    1040     966     980    1021     974    1053    1020    1106    1053
    1054    1028    1029     997     999     970     986    1020    1003    1034
     953     997    1015     992     984    1006     997     998    1003     999
     970     985    1005     975     944     972     983     964     937     983
    1016     996     965     964    1006     970     940    1004    1008     985
     961     937     978     962     980     943     951     976     961     992
     988     996     957     948     933     961     984    1025    1006    1009
     926     967     992     943     967    1007    1009     998     972     991
    1014     954     972     989     990     971     992     995     986     986
     958     945     957    1010     977     958     949     947     970     996
     976     962     964     956     976     989     970     958     949     971
     960     987     975    1001     973    1001     946     959     996     975
     970     981    1009    1010    1001     921     957    1023     999     991
     956     993    1009     966     986     953     914     951     984    1003
     980     941     950     948     917     930     967     980     973     971
    1010     993     959     956     958     959     974     964     935     954
     942     968     996     981     993     976    1001    1019    1009     991
     975     992    1028     956     984     973     968     950     982     947
     941     949     952     967    1006     950     950     956     925     962
    1016     971     980     968     944     943     948     958     966     997
     977     983     961     973     938     928     975    1006    1000     947
     946     955    1012    1004     967     981     998     957     969     940
     980     974     967     959     988     953     991     960     964     958
     958     971     931     936     947     934     976     902     990     948
     978     932     972    1009     953    1000     977     942     911     957
     936     957     939     929     998     964     962     985    1007    1015
     991     995    1045    1073    1083    1115    1163    1203    1251    1255
    1230    1221    1211    1157    1146    1153    1084    1080    1145    1161
    1158    1121    1104    1116    1127    1110    1090    1084    1043    1045
    1023    1039    1006     964    1006     979     929     945     946     949
    1012     967     961     976     944     974    1001    1003     985     994
     943     976    1020    1021    1002     976    1007    1005     987    1009
    1042    1064    1099    1106    1124    1164    1171    1198    1177    1117
    1147    1131    1100    1063    1069    1076    1030    1090    1093    1067
    1017    1061    1130    1121    1056    1048    1055    1033     963    1052
     950     961     949     973     946     963    1015     961    1021     985
     944     947     966     959    1018    1013     972     952     917     969
    1020     993     952     962     962     946     963    1001     981     984
    1018     966     953     975     969     954     971     974     925     922
     964     958     931     944     978     981     960     979     971    1007
    1006     971     934     965     929     939     902     957     997     947
    1027     960     971     900     929     966     945     951     941     950
     991     967     991    1019    1010     970     960     967     937     943
     965     967     981     941     924     932     965     965     947     934
     955     981     972     970     981     968     988     953     938     945
    1005    1014     997     971    1002     959     967     950     985    1054
     987     994     991     949     987     982     993     962     997    1010
    1029    1021    1017     989     992     983     980    1023    1032    1002
    1046    1031    1025     968     987     964     957     985     983     987
    1003     964     985     995    1004     969     975     986     964     946
     945     989     979     982     960     915     961    1001    1000     991
     993     971     988    1009     960     937    1020    1003    1016     967
    1007    1005     969     991     956    1012    1005     994     963     994
    1020     999     950     984     987    1017     953     984    1010    1042
    1014    1034    1011    1062     995     993     975     964     968    1026
     997    1008    1011    1052    1064    1110    1132    1125    1150    1242
    1281    1296    1225    1219    1277    1311    1326    1346    1489    1570
    1668    1703    1769    1671    1564    1528    1532    1391    1307    1270
    1299    1279    1276    1266    1320    1380    1375    1303    1356    1308
    1208    1173    1216    1132    1115    1082    1046    1036    1004     987
    1020     988     980     999    1030     992    1002     971     981     981
     994    1017    1029     995     950     947     985    1007     990     977
     997    1022     988     978     959     992    1001    1025    1011     995
    1015     954     954     968     939     983     967    1001     947    1024
     992     966    1014    1047    1041    1068    1129    1090    1143    1186
    1245    1267    1304    1347    1323    1273    1280    1247    1223    1173
    1150    1142    1112    1081    1167    1158    1140    1161    1164    1160
    1134    1113    1133    1099    1025     999    1025    1017    1012    1011
     962     989    1010    1020     993     980     946     954     966     987
    1023     986     947     972    1014     959     988     931     981     962
    1019     969     996     934     934     955    1022    1012     972     996
     947     956     950     976     976     975     968     979     957     988
     953     977    1007     997     964     961     947     944     976     978
     984     953     927     976    1003     956     903     945     976     945
     922     968     963     991     939     931     953     966     971     947
     965     966     986    1033    1012     921     891     986     936    1019
     960     999     956     948     951     938     984     959     963     981
     991     963     967     956     940     979     982     975     957     949
     994    1002     969     953     940     977     955     944     948     958
     959     957     930     933     960     963     955     993     991     956
     971     995     984    1013    1004     960     965     972     961     968
     998    1008    1050    1065    1036    1060    1016     980    1017     997
    1021    1075     994     991     995     963     921     994     972     969
     955     993     984     969     976     969     952     965     975     953
     935     923     982     992     968     960     937     959     982     993
    1006     966     935     942     954     974     981     989     967     983
     975     974     957     924     955     954     928     977     940     931
     986     971     963     994     997     966     973     945     910     975
     968     941     972     915     969     987     954     975     951     973
     982    1023    1000     978     980     977     961     985     988     972
     973     995     994     966     983     988     981     986     973     955
     990     975     955     997     946     998     994     951     967    1025
     990     929     921     982    1031     963     972     963     953     965
     986     997     972     976     934     963    1040    1002     989     976
     991     911     940     936    1014    1035     985     994     981     952
     932     941     958     953     981     982     976     965     960     980
     985     959     979    1028    1016     986     990     962     927     960
     992     992    1004    1000     997    1007    1022    1061    1073    1116
    1193    1182    1239    1219    1157    1099    1095    1149    1122    1099
    1119    1051    1052    1105    1061    1105    1033    1121    1062    1125
    1068    1085    1079    1078    1057    1065    1054    1070    1030    1010
    1074                                                                        
