Co 880                                                                          
BANK       1    4941     494   CONST  1600.0     1.7     0.0     0.0         STD
     684     727     763     673     692     694     685     704     735     662
     688     679     724     745     702     695     708     721     687     693
     713     722     697     693     699     696     721     716     691     692
     685     687     706     693     684     709     695     681     690     694
     706     719     735     711     700     693     680     652     675     695
     692     732     672     702     703     675     761     680     638     734
     690     702     721     695     710     704     675     682     680     701
     709     733     722     723     711     702     698     675     669     673
     691     705     709     707     697     688     716     682     686     703
     709     721     716     732     696     688     668     689     692     718
     711     706     663     690     661     714     694     684     667     712
     714     700     738     689     704     704     676     750     680     696
     735     747     644     713     746     716     691     685     703     664
     685     678     684     714     684     685     679     664     689     720
     717     702     695     698     699     694     701     696     697     718
     728     723     715     694     693     703     705     664     695     703
     734     685     661     685     701     696     718     713     708     661
     733     712     707     710     696     672     658     705     703     691
     726     691     667     688     714     682     707     695     705     726
     694     706     723     737     723     679     682     713     699     696
     676     655     683     705     700     692     666     671     714     693
     679     719     727     683     708     697     712     685     672     671
     703     695     717     779     699     731     716     721     725     722
     773     723     692     725     697     754     706     753     704     743
     741     716     761     717     734     725     711     697     734     744
     739     738     742     709     724     710     718     749     762     757
     749     713     728     750     700     676     707     725     711     707
     733     736     749     708     744     742     730     731     732     748
     708     738     697     711     661     766     793     715     732     731
     748     704     723     724     690     683     772     742     695     690
     698     722     741     715     712     722     734     708     754     725
     717     759     747     764     736     713     744     752     747     734
     729     723     719     710     705     697     696     715     734     711
     721     745     727     745     752     763     760     736     776     727
     752     721     742     719     703     732     740     774     748     713
     733     791     783     800     769     734     796     743     734     775
     729     736     694     734     725     737     751     744     734     738
     731     745     759     745     721     727     721     740     777     771
     752     741     751     726     708     714     720     742     758     755
     753     756     724     725     741     742     760     731     719     730
     704     707     706     708     722     707     742     770     794     766
     722     692     753     757     712     721     760     751     732     726
     714     725     734     744     767     754     746     743     715     697
     717     751     776     759     730     710     707     740     780     750
     739     774     734     722     759     768     724     770     785     758
     729     717     740     754     788     766     739     715     707     727
     752     750     725     767     736     723     730     775     721     745
     711     711     752     782     709     728     736     756     739     759
     714     729     738     734     754     750     741     743     762     749
     770     792     765     746     765     769     750     751     750     735
     748     744     775     771     774     766     740     730     700     708
     755     742     762     768     745     727     747     794     831     752
     720     723     746     742     737     756     744     721     732     737
     749     782     798     777     769     782     757     756     733     754
     741     725     717     742     786     779     768     763     769     771
     778     782     792     796     764     743     825     793     755     750
     767     745     776     769     793     775     780     764     766     746
     723     787     752     781     778     762     730     792     775     726
     734     793     750     799     751     721     739     779     753     756
     780     742     760     737     748     755     754     741     773     805
     790     772     755     750     743     754     769     758     731     761
     776     749     759     762     754     752     748     805     746     737
     756     721     748     766     764     777     761     791     762     734
     760     758     757     793     807     758     765     780     742     752
     755     787     787     756     778     782     779     747     746     763
     775     735     760     778     796     760     765     753     746     778
     788     761     770     791     805     749     749     793     792     793
     781     798     793     774     780     799     797     818     792     769
     764     768     775     787     788     825     801     748     779     772
     790     758     813     749     779     769     768     777     785     750
     811     769     765     779     841     784     780     784     772     828
     850     788     788     757     760     787     787     784     765     794
     804     770     772     775     763     772     805     787     762     794
     796     778     813     803     802     836     819     721     776     796
     769     789     803     788     780     762     788     792     791     833
     798     834     818     852     839     773     875     865     797     814
     823     831     819     787     751     816     828     848     875     852
     802     798     810     820     809     835     818     832     840     815
     800     819     803     807     837     808     790     824     834     801
     823     808     784     800     840     851     854     810     903     846
     807     822     847     844     823     837     910     846     838     871
     850     799     867     831     844     871     808     845     881     833
     822     802     835     857     872     836     802     866     865     809
     813     821     836     843     867     840     845     865     840     822
     839     853     849     831     822     822     840     807     817     851
     827     829     873     844     841     851     890     885     811     802
     811     831     842     802     841     861     851     813     841     874
     806     812     906     886     896     883     848     844     861     834
     893     875     873     865     848     871     853     841     867     886
     874     862     865     856     853     885     882     862     852     884
     882     877     858     859     889     888     857     842     876     859
     883     878     891     873     869     901     869     851     871     865
     897     909     898     881     890     881     860     827     854     903
     916     907     835     910     869     827     857     877     852     836
     914     816     860     886     873     896     913     875     858     869
     870     890     857     855     884     883     888     883     872     837
     870     921     905     949     886     894     894     899     862     922
     926     874     913     897     951     934     985    1005    1068    1070
    1153    1182    1185    1119    1064    1025    1037     990     905     896
     926     856     891     932     911     871     858     863     897     888
     877     910     888     903     914     900     913     917     895     890
     889     900     887     917     960     907     884     900     909     866
     901     935     902     905     897     877     925     879     894     942
     896     880     886     938     940     892     892     895     958     915
     921     915     910     845     915     875     865     873     931     928
     922     919     900     897     906     904     913     924     938     936
     957     936     927     942     921     909     876     903     924     914
     963     970     945     922     915     948     922     896     913     910
     940     945     928     926     902     898     866     911     920     971
     922     907     933     904     892     919     884     956     902     952
     900     968     987     918     873     895     976     906     911     945
     932     872     863     930     936     911     860     934     935     884
     899     909     877     903     928     927     915     942     946     916
     907     909     910     968     968     920     903     928     938     942
     887     902     924     920     910     940     934     936     942     941
     932     941     956     985     947     899     964     950     976     893
     906     925     926     897     960     949     952     922     930     890
     911     951     945     913     953     975     980     966     992    1003
    1033    1130    1230    1395    1614    1797    1845    1809    1731    1659
    1644    1551    1402    1263    1166    1133    1079    1035     964     960
     958     968     965     974     946     982     945     964     958     934
    1034     982     944     907     928     935     950     974     923     919
     935     967    1002     924     951     972     929    1008     976     934
     965     934     937     995     956     951     959     920     951     934
     971     959     952     927     928     947     959     969     960     971
     980     969     943     979     977     922     946     946     936     972
     969     920     948     928     928     968     953     995     940     949
     957     959     931     958     948     970     960     985     937     965
     945     942     967     998    1007    1027    1015    1025    1027    1007
    1035     978    1034     997    1003    1055    1081    1129    1147    1178
    1288    1419    1751    2250    2739    3137    3242    3105    2840    2577
    2313    2022    1805    1595    1473    1371    1360    1414    1497    1681
    1892    2218    2426    2534    2438    2381    2102    1870    1816    1582
    1343    1370    1222    1174    1163    1097    1128    1099    1038    1057
    1080    1064    1077    1067    1042    1036    1060    1061    1059    1019
    1023    1058    1048    1055    1069    1026    1008    1010    1032    1008
    1037    1043    1032    1036    1047    1044    1049    1038     988     989
    1019    1027     988    1012     998    1048    1085    1054    1039    1008
    1107    1068     981    1044    1052    1000    1104    1048    1020    1050
     990    1010    1043    1016    1024    1057    1030    1035    1035    1027
    1044    1034    1086    1064    1079    1070    1026    1033    1027    1035
     983     991     976     944    1019    1037    1031    1044    1031    1017
    1033    1007    1017    1055    1086    1110    1103    1077    1079    1082
    1051    1100    1090     999    1066    1095    1061    1030    1030    1007
    1018    1000    1039     977    1059    1026    1028    1024    1080    1088
    1119    1049    1041    1017    1033    1042    1073    1055    1069    1096
    1092    1105    1035    1060    1034    1062    1068    1065    1027    1041
    1043    1023    1013    1017    1047    1029    1002     994    1000    1033
    1038    1050    1056    1025    1026    1028    1024    1000    1000    1089
    1082    1060    1042    1023    1066    1077    1083    1076    1002    1047
    1095    1031     998    1070    1061    1085    1051     967    1042    1032
    1026    1050    1007    1054    1045    1015    1115    1066    1090    1095
    1103    1072    1092    1067    1061    1071    1071    1093    1095    1107
    1129    1115    1138    1167    1221    1240    1245    1231    1315    1344
    1350    1453    1622    2026    2644    3741    5210    6669    6935    6485
    5922    5601    5657    5607    5104    4286    3362    2855    2532    2334
    2146    2059    2323    2752    3412    4248    5084    5637    5390    5183
    5027    4798    4519    4014    3510    2937    2554    2167    1874    1633
    1452    1359    1244    1218    1160    1151    1128    1117    1104    1130
    1135    1112    1086    1026    1055    1079    1049    1052    1070    1051
    1047    1044    1032    1089    1087    1068    1059    1054    1063    1050
    1072    1102    1035    1077    1045    1079    1049    1027     948    1011
     996    1022    1072    1048    1029    1026    1081    1088    1058    1076
    1058    1060    1031    1039    1035    1036    1085    1047    1048    1060
    1096    1064    1029    1098    1104    1054    1098    1112    1115    1120
    1144    1177    1193    1173    1185    1179    1193    1232    1258    1268
    1285    1427    1653    1926    2552    3431    4478    5315    5442    5191
    4717    4235    3773    3352    3033    2472    2144    1863    1750    1614
    1540    1542    1495    1588    1580    1527    1454    1418    1416    1349
    1311    1347    1263    1255    1213    1202    1200    1225    1187    1133
    1108    1130    1110    1132    1107    1065    1058    1068    1114    1120
    1116    1123    1105    1105    1112    1131    1145    1066    1075    1105
    1099    1069    1055    1083    1064    1091    1087    1093    1118    1058
    1065    1116    1104    1068    1071    1142    1136    1093    1070    1029
    1095    1106    1161    1109    1087     967     986    1078    1069    1071
    1119    1073    1025    1034    1056    1053    1049    1041    1077    1060
    1042    1056    1072    1052    1047    1041    1072    1078    1113    1078
    1029    1051    1047    1048    1046    1030    1039    1041    1061    1100
    1069    1064    1070    1076    1073    1074    1034    1084    1071    1087
    1085    1112    1113    1037    1031     977    1016    1080    1114    1097
    1099    1110    1080    1099    1103    1163    1165    1275    1393    1412
    1496    1540    1517    1455    1443    1439    1409    1356    1318    1252
    1203    1149    1136    1123    1084    1072    1101    1111    1108    1102
    1119    1116    1073    1009    1027    1049    1079    1099    1039    1034
    1075    1069    1049    1069    1100    1020    1049    1014    1071    1011
    1062    1027    1020     986    1065    1001    1062    1035    1050    1055
    1027    1052    1036    1020    1035    1053    1015    1063    1005     991
    1033    1038    1060    1027    1075    1043    1044    1059    1096    1086
    1117    1068    1001    1024    1065    1076    1054    1066    1064    1027
    1002     994     991    1030    1064    1037    1048    1052    1011    1049
    1057    1032    1010    1022     998    1038     965     991    1038    1052
    1057     995    1019    1046    1017    1045    1058    1022    1027    1043
    1042    1043    1023    1021    1084    1012    1041    1029    1046    1016
    1056    1065    1069    1061    1061    1055    1120    1179    1225    1274
    1246    1248    1296    1317    1355    1411    1470    1693    2048    2681
    3743    5581    7711    9340    9492    8445    7279    6735    6940    7605
    7519    6704    5239    3964    3308    2792    2704    2287    1919    1620
    1372    1251    1220    1227    1208    1204    1137    1130    1141    1113
    1057    1079    1062    1056    1015    1023    1067    1044    1040    1065
    1074    1032    1009    1049    1057    1058    1060    1065    1068    1031
    1034    1025    1048    1055    1051    1015    1035    1052    1066    1001
     981     999    1038    1070    1033    1050    1086    1010     936    1012
    1047    1065    1038     967     960    1023    1061    1014     979    1049
     959     989    1039    1006    1044    1034    1029    1028    1047    1081
    1084    1037    1048    1021    1010    1030    1021     986    1004    1016
    1003    1000    1007    1013    1033    1078    1057    1056    1080    1076
    1092    1017    1029    1052    1016    1006    1000    1023    1042    1047
    1011    1017     978    1003     953    1002     968    1028     990    1026
    1035    1071    1050    1046     994    1018     987    1071    1081    1034
    1012    1024    1034    1072    1071    1080    1047    1025    1101    1070
    1078    1098    1071    1024    1061    1070    1132    1157    1150    1203
    1294    1466    1750    1966    2099    2179    2148    2127    2083    2065
    2037    1940    1871    1790    1666    1509    1435    1343    1275    1243
    1188    1168    1097    1086    1052    1058    1002    1069    1089    1117
    1044    1072    1036    1014    1047    1054    1040     996    1071    1111
    1059    1077    1095    1031    1049    1034    1084    1088    1071    1056
    1068    1058     980    1034    1047    1032    1026    1046    1065    1047
    1019    1045    1051    1035    1043    1058    1068    1071    1100    1055
    1021    1058    1051    1023    1014    1017    1054    1075    1025    1096
    1011    1020    1067     993    1046    1036    1011    1081    1025    1073
    1054    1057    1042    1074    1016     998    1042    1022    1012    1005
    1073    1000    1063    1060    1058    1047    1049    1043    1041    1035
    1024    1042    1029    1026    1050    1059    1043    1028    1032     998
     952     984    1059    1053    1069    1117    1063    1083    1125    1022
    1057    1053    1023    1015    1017    1025    1024    1085    1055    1056
     970     992    1014    1029    1024    1066    1076    1026    1044    1001
    1030    1039    1027    1084    1038    1010    1017    1047    1047    1014
    1008     976    1022    1028    1041    1014    1021    1007     995    1087
    1072    1034    1002     998    1020    1018    1015    1020    1022    1026
    1004    1000     995     998    1025    1034    1027    1054    1051    1064
    1032    1060    1036    1041    1044    1039    1070    1003     996    1017
     973    1023    1006     999    1010    1013    1050    1006    1015    1029
    1001    1040    1055     977    1036    1025    1021    1018    1023     997
     970     982     996    1035    1044    1078    1017    1006    1090    1045
    1013     993     986    1022    1024    1033    1064    1069    1035    1016
    1043    1036    1021     993    1003     993     999     996     978     981
    1008    1037    1019    1018    1031    1055    1006     962    1030     996
     982     939    1048    1030    1040     988     997    1064    1007     993
    1024    1006    1040     990    1023    1025    1019    1011    1007     954
     993    1011     961     968    1009    1017     973     989     983     986
     969    1010    1032     992     974     975     997    1002     953    1002
    1020    1038    1005    1014     997    1001    1025    1006     966     997
     972     994     978     987    1017    1042    1022     960     969    1023
     996    1018    1009    1024    1006    1005     994    1086    1015     952
     981     992    1017    1032     999    1017    1019     983     979    1015
    1053    1038     982    1019    1023     988     976     960     974    1020
    1011    1023    1052    1030    1030    1027    1016    1053    1056    1053
    1032    1011    1040    1091    1094    1159    1176    1179    1167    1196
    1165    1179    1144    1059    1034    1017    1053    1002    1053    1027
     982    1030     962     972    1009     979    1015     996    1002     988
     973     992    1006    1007     937     968     962     970    1007     990
     972     943     981    1031    1020     997     987     982    1039    1037
    1013    1000     999    1028    1030     980    1008     969     998    1005
    1028     968     987    1028     971    1003    1004     973     904    1010
     994     996     985     938    1002    1015     996    1005     979     993
     995    1027     978     922    1016     975     984     996     959    1005
    1000     962     918     960    1017     990     985     993    1014    1022
     993     962     975     988     957     991    1026    1013    1000     980
     979    1009    1018     985     998     988    1012    1009     975    1012
     983     969     996    1016     987    1029    1016     984    1000    1001
    1049     993     996     952    1018    1003     954    1006     992    1013
     973     962     959     991     996     986    1011    1002    1004     975
    1021    1007    1051    1045    1034    1015     980     962     980    1014
     970     982     992     984    1004    1008    1008    1021     998     986
    1022    1021     991    1008    1025    1014    1032    1010    1000    1014
    1027     978    1007    1015     979     992    1007    1002     999     976
     975     969     966    1011     936    1015    1004    1051     950    1017
    1006     989     968     958    1067    1082    1043     999     965    1063
    1055    1052     997    1018    1028     963     984    1014    1023    1048
    1030    1019     994    1003    1053    1062    1076    1072    1044    1114
    1164    1237    1322    1509    1611    1709    1772    1716    1670    1624
    1576    1397    1374    1287    1230    1270    1114    1199    1156    1103
    1065    1057    1091    1062    1010    1037     985    1062    1007     994
    1021    1016     976    1019    1043    1005    1008    1017    1017    1005
    1008    1026    1006     995    1013     994    1001    1016    1007    1017
    1048    1025    1005    1007    1008    1029    1053    1035    1014    1037
    1033     980     970     964    1004    1043     972    1030    1006     998
    1012    1041    1004    1041    1016    1011     997    1046    1062    1098
    1060    1042     964    1012     957    1024    1013     997    1003    1046
    1018     995    1018     972    1002    1025    1007    1018     974    1018
    1038    1008    1030    1000     979    1006    1023    1026    1031     982
     982    1017    1011    1006    1028    1030    1042    1061    1010    1045
    1067    1010     964    1005    1043    1055    1008    1065    1019    1008
    1034    1007    1035    1024    1013    1031    1104    1072    1027    1182
    1142    1252    1398    1600    1832    2067    2133    2026    1858    1706
    1638    1542    1401    1378    1349    1293    1253    1206    1136    1156
    1148    1118    1119    1099    1110    1141    1170    1236    1321    1399
    1504    1488    1467    1434    1356    1326    1304    1344    1349    1354
    1326    1282    1243    1200    1183    1138    1100    1118    1085    1021
    1091    1100    1019     994    1011    1025     994    1072     993     963
    1009    1029     991    1009    1015    1016    1038    1052    1025    1059
    1050     958     993    1045    1008    1007     991     971     963    1003
    1032    1005     975     997     996    1002    1001    1010    1019    1017
    1055    1040    1061     972     972     994     980     961     991     969
    1029     991     998    1027     962    1004     995     990     946    1003
     993     976     945    1005    1010     955     983    1008    1015    1016
    1021    1013    1017    1010    1029    1006    1020    1018     974    1025
     992     961     981    1014    1034     982     970     986    1008    1018
    1004     996    1021    1036    1013     994    1008     997     969     987
    1017    1015    1017    1044    1059    1085    1033    1046    1058     998
    1009    1032    1019     981    1033    1056    1053    1036    1030     979
    1019     982     986     965    1041    1069     998     982     965    1011
    1028     974     975    1005    1004     972     982     988    1015    1027
    1020     988    1021    1032    1011    1019    1006     994    1004    1042
    1046    1011    1008    1005     998     981     977    1066    1058    1071
    1052    1034    1005    1009    1073    1040    1091    1063    1047    1084
    1046    1127    1176    1217    1324    1384    1580    1671    1863    1921
    2043    1901    1911    1815    1603    1560    1473    1415    1380    1313
    1238    1233    1219    1140    1151    1091    1063    1069    1111    1078
    1040    1060    1063    1068    1058    1058    1068    1083    1050    1032
    1034    1022    1009     981     999    1028    1081    1053    1031    1055
    1048    1054    1073    1026    1039    1101    1102    1068    1127    1080
    1114    1169    1145    1188    1164    1219    1373    1523    1647    1891
    2214    2612    2887    2945    2956    2646    2425    2332    2171    2066
    2076    2115    2121    2118    2047    1878    1767    1648    1458    1375
    1311    1232    1177    1103    1071    1112    1106    1081    1075    1096
    1083    1048    1051    1074    1020    1052    1067    1002     976    1026
    1041    1031    1049    1000    1021    1046     999    1038     995    1070
    1029    1013     990     988    1043    1040     984    1071    1014    1006
    1049    1005    1047     974    1024     998     962     972     991     980
    1080    1049    1004    1015     991     996    1025    1002    1026    1032
    1005    1017     996     976     978    1003     988     978    1009    1023
     996     986    1012     982    1008    1045    1039     996    1007     987
     959     976    1034     976     976     973    1016    1008     981    1013
    1041     996    1005     991     985    1011     974    1036    1053    1007
     983    1023     975    1062    1009     990    1008    1018    1059    1000
     999    1010    1011    1024    1041     988    1027    1056    1039    1025
    1039    1070    1046    1045    1053    1061    1060    1020    1068    1127
    1108    1145    1151    1132    1107    1173    1180    1210    1273    1380
    1711    2168    2671    3300    3471    3173    2675    2266    1969    1914
    1782    1834    1944    2131    2235    2262    2026    1645    1570    1431
    1348    1257    1177    1182    1132    1155    1118    1069    1053    1006
    1011    1050    1053    1006    1019    1012    1021    1036    1026    1020
    1033    1033    1020    1010     984     982    1035    1006     989    1058
    1063    1008     986    1007    1023    1013     998     949    1023    1030
     975     968     945    1035     986    1036     979    1045     992    1056
     969    1022     997    1029     953    1002     964    1028    1014    1023
     992     987     993     977     966    1024    1002     948     960     996
    1009    1001     995     988     984     965     965     998    1019     990
     961     947     961     956     946     995     981    1002     956    1008
     983     969    1004    1011    1014     982     993    1025     999     948
     976    1056     970    1008    1064     985     983     996    1032     999
     976     973     966     986     957    1011    1019    1008     968     995
    1013     973    1004    1014    1015     988     983     997     972     970
    1032    1032     998     998    1035     999     972     989     961     999
     957     918     973    1014    1011     990     979     993    1019    1001
    1038     997    1002     988     981     949     988    1027    1010    1004
     969    1010     955     974     966     946     958    1048    1010     981
    1013     962     949     946     984     959     977     963     987    1019
     973     986     987     976     988     990     978     987     987    1001
     986     975     987     994     962     944     969     977     971    1005
     959     959    1025    1060    1041    1017     992    1011     986     993
     995    1029     973    1000    1006    1054    1044    1048    1031     955
    1029    1022    1021     994    1047    1056    1026    1073    1023    1070
    1044    1059    1109    1164    1168    1265    1357    1500    1732    2024
    2357    2703    2924    3072    3144    3013    2765    2570    2349    2066
    1994    1976    1988    2204    2259    2100    1994    1934    1776    1632
    1451    1348    1286    1164    1161    1189    1070    1045    1092    1053
    1129    1036    1068    1037     964     990    1022     986     964    1024
     964    1040    1033    1018    1004    1074    1079    1092    1051    1085
    1103    1128    1160    1215    1281    1195    1170    1127    1111    1069
    1117    1127    1087    1039    1025     989    1005    1046    1046    1056
    1044    1044    1044    1024    1018    1004     985     973    1004    1001
    1005     955    1004    1062     972     969     964    1007     997     977
     961    1021    1035     965     983    1001     968    1025     973    1017
    1044    1037     999    1024    1036     969     956     941     997     957
    1008    1016    1025     981     985     983     975     955     993     979
     962     970     985     983     973     985     999     979     965     977
     968     972     957     976    1021     987     963     985     979     975
     998     977     996    1011     970     998    1022     969     954     964
     962    1089     977     961     992     942     947     965     976     973
     960    1006    1023    1013    1025     967    1020     990     948     980
     993    1021    1002    1007    1000     991     998     959     943     968
     995     997     951     966     968     962     948     954     979     971
     989     999     987     985    1009    1032     976     972     999    1008
    1013     986     975     989    1011     970    1016     971     988     987
     945     988    1019     952     936     997     970     969    1000     918
     947     933     953     975     983    1041     964     956    1017     957
     944     947     991     988     965     982    1000     982     999     971
     970     998    1014    1002    1004    1017    1049    1047    1045    1079
    1059    1060    1033    1023    1009    1003    1039     999    1042    1070
    1098    1110    1045    1005    1045    1008    1027    1028    1100    1081
    1065    1123    1149    1120    1149    1155    1117    1105    1060    1049
    1042    1042    1038    1045    1026    1017    1030    1045    1039    1031
    1046    1121    1127    1125    1159    1193    1186    1174    1140    1095
    1067    1092    1097    1070    1052    1050    1025     999    1024    1010
     969     948     953     975     984     995     985    1003     968     981
    1021     978     927     977     971     967     968    1033     968     927
     985    1011    1039     981     988    1046     981     980    1058    1045
    1064    1014    1048    1040    1031    1008    1015    1059    1034     963
     979    1026     982     998    1021     991     984    1013    1031    1011
     999     969     972     991     979    1001    1006    1008     992     954
     979     965    1011     965     975     995    1006     992     933     959
     959    1014     920     949    1023     927     975     979    1032     933
    1012     907    1005    1023    1051     979    1008     977     978     934
     879     947     967     982     966     978     981     965     965     969
     972     978     989     996     969     971     996     983     990     976
     955     975    1009     994     954     970     984    1007    1018     992
     983    1028     979    1018     996     963     967     997    1048     951
     967     936     996     935     999    1042     951     911     990     914
     954     992     971     986     997     954     996     956     960     954
     973     987    1003     959     986    1005     968     973     976     978
     982     975     947     954     973     990     967     991     967     951
     962     954     985     990     970     952     959     967     995     994
    1000     982     969     978     967     973     982    1062     954     965
     963     947     946    1025     949     968     977     986    1083    1019
     995     990     978     990     959     948     926     950     971     983
     999     981     939     942     932     928     959    1001     975     983
     980     968    1006     993     956     961     987     971     966     973
     983     975     987     973     986     945     932     963     982     971
     951     958     961     990     982    1031     980     953     932     969
    1006     910     979     970    1006     988     963     956     942     935
     978     968     979     983     974    1003     985     936     956     926
     957    1008     967     979     990     952     992    1006     959     952
     963     956     921     945     949     965     993    1006    1017    1015
    1019    1031    1037    1031    1086    1059    1040    1028     991    1032
    1018     946     949    1042     945     976     982    1068     989    1027
    1026    1069    1039    1061    1035    1073    1206    1333    1439    1615
    1741    1690    1579    1407    1322    1367    1218    1172    1165    1145
    1163    1226    1275    1322    1350    1336    1335    1275    1213    1203
    1176    1160    1144    1170    1142    1123    1131    1147    1079    1054
    1070    1057    1029    1008    1069    1059    1062    1052    1029    1026
    1028    1016    1014     979     993     956    1042    1018     985     952
    1009     951     977     991     966     923     949     961     943     959
     973     949     964     984     989     994     982     965     974     973
     983     997     979    1010    1011     909     954    1038     986     955
     973     958     960     961     934     938     942     958     952     978
     964     936     958    1040     979     997     959     968     975     980
     988     934    1002     996     960    1009     983    1004     970     991
    1009    1020     995     933     993     961     956     912     960     940
     943     968     988     996     995     995     980     972     983     974
     974    1003     977     923     933     968     959     954    1003    1005
    1023    1002     964     969     997     972     967     995    1005     968
     962     962    1020     949     993     941    1021     983     957     961
     998    1005     967     975     996     975     975    1000    1002    1028
    1029    1002     984    1023    1019     981     966    1012    1023    1008
     944     962    1007    1001     989     988     975     960     995    1002
    1006     990     949     979     997     940     962     934     940     954
    1005     977     974     951    1012    1002     989     988     962     970
     988     993     983    1004     983    1011     982     924     993     964
    1025    1022     977     991     997    1001    1000     987     961     994
     981    1002    1021     964    1000     942     948    1008     995     981
     995     984    1004    1003     994    1029    1046    1033    1018    1005
    1018    1012     984    1026    1067    1059    1046    1080    1162    1236
    1311    1387    1402    1452    1503    1420    1316    1289    1243    1178
    1166    1196    1148    1141    1168    1182    1262    1235    1275    1253
    1266    1247    1162    1155    1134    1212    1203    1314    1371    1482
    1512    1433    1347    1299    1242    1150    1106    1084    1087    1106
    1105    1121    1143    1211    1229    1197    1205    1167    1132    1095
    1067    1077    1005     979    1027    1022    1003     985     991     993
    1002     986     990     979    1061    1027     985     958     998    1021
     969     990    1073    1021    1066    1023    1058    1057    1123    1186
    1117    1146    1175    1220    1228    1141    1114    1158    1191    1144
    1066    1052    1048    1044    1057    1106    1118    1079    1099    1099
    1046    1028    1037    1036    1031     996    1011    1054    1050    1078
    1027     987     995    1014     920     959     961    1004     955    1004
    1029     951     987    1015    1008    1038     972    1018     973     991
     999     997     946     969     988    1022     962     957     983     972
     938     920     998     955     985     951     970     999     985     948
     989    1012    1002     963     964    1030     998     980     977     971
     935     938     985     976     942     969     966    1002     985     956
     941     990     956     945     958     946     986     938     974    1015
     996    1010    1015     999     975     990     976     997     932     974
     954     932     928     922     923     935     954     983     981     992
     954     918     952     973     998     959     951     979     961     974
     956     973     965     947     941     980     957     964     968     957
     969     993     980     967     972     980     973    1000     969     970
     955     921     928     975     959     950    1009    1025     997    1038
    1052    1014     957    1003    1011    1014    1012    1028     998     952
     965     976     998     967     920     968     980     985     953     912
    1010     951     940     937     964     965     928     909     960     968
     975     995     968     969     981    1017     998     970     951     959
     950     952    1011    1001     967     989    1011     981     960    1008
     996     967     964     974     973     959     960     992     960     977
     961     992     981     921     995     918     920     976     960     953
     978     972     943     979     965     985     990     961     943     939
     933     929     963     937     940     982     967    1008    1024     943
     927     924     936     945     964     978     962     953     953     946
     970     985     972     972     940     942     971     987    1005     990
     944     903     962     992     974    1007     998     989    1065    1028
    1049    1014    1041    1025     995    1007     987     968    1019     955
     969     962     903     987     974     971     895     943     954     958
     982     973     968     983     973     951    1016     994     952     992
     953     902     941     989    1009    1001     995     981     988    1006
    1017    1051    1059    1059    1130    1156    1149    1110    1101    1076
    1100    1071    1073    1007    1025    1001    1022    1016    1005    1026
    1007    1051    1102    1010    1052    1067     982     998    1015     973
     960     992    1025    1061    1030    1061    1062    1131    1108    1099
    1139    1085    1098    1159    1144    1118    1080    1051    1020    1035
    1038    1007     997    1032    1059    1065    1056    1029     993     992
    1017    1017     970    1057    1038    1015    1025    1011    1017    1019
     993     972     968     980     940     970    1015     941     976     995
    1006    1000    1006     955     937     993    1019     983     973     993
     945     881     942     976     898     916     952     963     964     986
    1021                                                                        
