Co 1000                                                                         
BANK       1    4941     494   CONST  1600.0     1.7     0.0     0.0         STD
     728     752     728     755     673     726     784     742     712     718
     765     723     733     680     723     748     725     729     740     702
     731     738     710     712     750     769     762     728     665     676
     737     729     698     744     733     737     717     706     703     722
     725     721     703     735     692     714     710     751     700     678
     736     710     783     753     757     730     708     722     683     794
     734     752     727     683     704     723     711     751     698     751
     755     721     705     733     708     667     689     703     710     690
     698     710     702     729     739     711     710     715     713     737
     745     725     691     712     707     698     708     718     721     705
     684     726     731     732     713     697     744     728     738     690
     721     741     732     701     729     706     698     748     708     757
     731     694     728     718     706     696     724     733     723     709
     733     736     712     728     761     709     687     690     714     734
     728     722     733     749     774     750     707     704     710     727
     708     693     730     729     726     733     731     743     718     739
     738     737     762     713     689     705     757     741     721     703
     734     753     730     751     741     698     777     729     741     756
     743     700     724     715     734     724     711     701     688     678
     705     696     654     699     712     718     730     736     722     712
     725     710     722     740     762     739     718     724     712     699
     717     720     699     711     725     727     707     748     739     736
     744     713     722     699     756     713     717     759     715     752
     709     760     747     754     746     749     687     764     718     727
     699     753     753     728     762     744     704     718     709     786
     750     733     777     745     716     719     714     728     750     751
     712     723     765     753     725     714     705     724     728     704
     763     718     737     745     693     751     730     754     762     713
     732     742     767     754     735     741     736     759     733     737
     705     733     732     724     734     745     721     753     744     748
     759     717     731     760     691     725     736     716     701     736
     689     678     717     716     689     722     741     729     714     725
     715     707     725     719     709     692     720     727     752     749
     754     736     745     770     748     765     750     759     764     762
     747     756     763     717     731     745     763     726     703     734
     733     714     709     731     776     707     730     739     728     745
     720     722     724     725     729     729     699     713     747     763
     759     745     749     732     700     759     735     725     741     734
     750     761     738     767     751     705     720     721     722     742
     722     733     748     718     704     787     736     738     747     717
     734     746     717     741     723     751     734     790     752     775
     760     748     740     736     737     751     784     777     728     742
     769     726     730     725     721     706     767     767     761     723
     713     731     738     725     749     749     731     731     708     741
     742     727     713     710     775     745     760     774     746     753
     776     741     767     779     740     747     713     757     744     757
     732     713     689     736     763     772     761     734     762     745
     731     713     773     759     688     736     762     747     755     774
     768     743     751     779     740     737     757     780     729     714
     739     721     728     772     769     737     770     740     716     721
     731     728     720     719     732     745     783     736     740     759
     746     780     714     755     765     760     734     779     768     807
     718     763     781     746     721     733     777     734     765     722
     773     738     777     794     774     711     736     755     774     738
     776     761     776     794     776     764     783     776     797     787
     779     745     714     757     777     775     743     749     749     771
     752     748     739     763     789     782     758     761     780     729
     737     763     773     719     730     700     743     756     784     761
     765     790     805     748     741     799     725     723     728     755
     733     711     765     730     786     778     771     765     781     777
     743     743     751     779     790     769     789     810     776     771
     781     761     769     777     784     782     766     774     777     743
     740     756     786     754     738     797     771     789     729     739
     773     781     805     721     762     801     750     771     781     763
     713     750     806     769     749     748     753     771     747     778
     785     752     778     814     803     793     784     799     792     765
     761     806     799     802     791     800     799     800     806     812
     776     780     794     797     788     767     793     820     799     758
     771     775     754     753     794     788     782     763     754     764
     834     786     775     823     783     753     770     802     801     758
     729     748     795     789     801     798     804     834     780     757
     771     762     763     789     791     808     818     787     790     825
     856     840     795     811     815     796     785     760     754     823
     820     788     798     804     797     803     779     797     797     751
     804     800     794     787     774     789     821     838     856     798
     819     761     808     795     750     739     826     809     820     754
     783     801     796     802     772     767     811     797     781     807
     816     798     803     786     781     786     836     826     813     822
     816     808     826     863     865     870     844     823     830     853
     870     795     771     789     831     839     820     779     808     814
     808     838     814     782     766     810     865     812     776     801
     858     806     792     839     832     862     775     842     830     842
     834     834     822     826     839     854     869     877     826     798
     775     806     822     817     828     815     825     838     884     875
     821     810     833     851     828     812     840     841     823     834
     834     828     825     839     818     798     834     830     817     858
     873     818     832     834     849     829     830     894     864     857
     843     864     846     843     868     834     814     869     867     853
     870     836     860     838     861     842     846     860     865     877
     877     871     848     858     839     820     870     865     830     844
     864     864     871     878     862     832     873     877     840     878
     869     856     856     875     853     829     824     902     848     859
     823     852     888     838     840     859     926     870     886     853
     925     924     850     907     929     882     860     878     885     889
     873     887     876     879     854     845     853     890     888     870
     874     873     851     857     891     897     881     873     901     910
     889     872     855     891     899     879     876     886     854     897
     861     836     852     873     876     882     906     941     848     909
     893     866     932     925     890     906     857     869     863     891
     910     892     895     948     873     902     899     900     908     899
     917     908     887     886     883     872     899     924     917     928
     898     886     899     870     898     922     897     883     915     936
     897     880     870     903     947     915     878     900     920     890
     918     962     897     901     927     931     901     921     954     858
     876     938     938     858     949     898     875     885     898     873
     905     902     969     930     870     916     913     920     830     877
     900     911     906     861     885     899     884     885     866     862
     894     914     884     894     926     924     917     886     907     951
     923     879     918     953     913     909     868     847     886     925
     904     890     889     927     963     911     849     917     935     850
     896     942     875     930     829     882     936     924     892     915
     886     905     900     946     892     913     939     930     907     922
     903     879     876     895     918     923     889     887     917     934
     928     937     934     941     934     927     912     906     919     926
     930     913     927     897     944     942     939     908     933     924
     997     966     926     939     894     956     942     898     995     978
     933     912     927     911     922     960     919     948     907     926
     945     921     944     942     869     901     937     938     935     918
     873     879     904     930     947     932     921     915     977     941
     912     926     912     945     959     910     933     937     964     960
     937     959     946     936     903     924     922     929     974     919
     933     945     937     977     906     965     902     939     965     924
     935     935     880     943     888     916     925     941     944     947
     923     905     910     933     940     921     984     941     981     973
     989     933     917     973     994     955     929     957     967     972
     956     949     967     960     940     993     949     970     924     971
     971     944     935     945     957     960     978     916     892     973
     919     947     966     908     954     998     962     958     986     969
     952     975     905     982    1015    1026    1028    1002    1034    1055
    1048    1043    1102    1112    1125    1162    1173    1258    1402    1640
    2039    2669    3543    4169    4177    3832    3224    2630    2198    1891
    1678    1459    1293    1233    1195    1142    1102    1079    1077    1094
    1057    1018    1066    1046    1023    1049    1056    1046    1051     969
    1053    1021    1014    1054    1011     994    1016     995    1032    1079
    1007     950     994     950    1022    1003    1022    1042    1033     995
     987    1008    1022    1005    1014     990    1046    1055    1018    1017
    1042    1039    1012    1032    1042    1064    1061    1038     986     993
     979     998    1024     979    1006    1023    1024    1038    1035    1050
    1074    1010    1012    1079    1058    1036     973     976    1059    1014
    1022     991     993    1049     986    1015     978     990    1026    1008
    1046    1004    1009    1065    1032    1025    1011    1057    1042    1004
     987    1011    1032    1037    1014    1031    1061    1009    1021    1042
    1008    1016    1033    1050    1032    1041    1035    1063    1028    1045
    1035    1018     992    1014    1038    1025    1051    1003    1037    1050
     997    1002    1000    1060     973     981    1011    1061    1031    1015
    1071    1028    1045    1068    1022    1019    1058    1031    1008    1000
     986    1011    1029    1071    1088    1050    1060     999    1013    1022
    1035    1072    1065    1030    1012    1037    1079    1070    1024    1005
    1003    1057    1078    1025    1037    1055    1041    1002    1012    1037
    1025    1048    1058    1021    1018    1072    1039    1088    1086    1018
    1016    1033    1073    1159    1137    1053    1079    1007    1097    1055
    1096    1048    1049    1037    1116    1085    1089    1031    1094    1097
    1054    1092    1106    1030    1044    1072    1075    1106    1101    1087
    1121    1160    1232    1251    1330    1350    1380    1418    1515    1734
    2220    3004    4396    6466    8774   10151    9546    8043    7095    6915
    6812    6087    4909    3883    3064    2389    1907    1601    1472    1337
    1262    1154    1167    1196    1087    1102    1054    1084    1043    1098
    1148    1050    1092    1120    1062    1078    1083    1074    1096    1035
    1042    1062    1103    1078    1061    1078    1048    1027    1063    1075
    1045    1036    1023    1039    1081    1092    1073    1058    1049    1038
    1044    1071    1068    1048    1055    1081    1057    1016    1031    1040
    1088    1079    1077    1070    1046    1059    1041    1110    1066    1066
    1050    1022    1009    1103    1025    1122    1018    1014    1046    1029
    1043    1040    1028    1036    1022     973    1019    1044    1116    1093
    1094    1113    1111    1145    1193    1207    1172    1176    1209    1205
    1190    1203    1220    1245    1250    1305    1351    1418    1539    1849
    2269    3071    4171    5710    7385    8124    7381    6312    5425    4540
    3698    2896    2343    2035    1877    1591    1532    1532    1376    1315
    1370    1230    1279    1235    1242    1231    1187    1235    1147    1177
    1190    1168    1127    1176    1128    1125    1162    1219    1184    1149
    1176    1161    1159    1166    1153    1171    1149    1151    1175    1145
    1113    1104    1124    1098    1075    1152    1152    1168    1171    1081
    1072    1107    1168    1079    1093    1058    1102    1172    1138    1093
    1105    1062    1127    1149    1094    1050    1029    1116    1068    1092
    1112    1180    1110    1106    1084    1055    1096    1087    1168    1143
    1118    1105    1107    1088    1103    1080    1039    1075    1088    1088
    1065    1050    1070    1092    1073    1070    1079    1095    1116    1094
    1078    1072    1047    1052    1051    1077    1081    1036    1041    1068
    1131    1073    1077    1090    1097    1063    1047    1038    1055    1048
    1046    1093    1014    1036    1085    1046    1056    1090    1065    1062
    1088    1080    1136    1112    1092    1083    1070    1083    1088    1021
    1058    1074    1051    1075    1110    1074    1056    1038    1052    1075
    1056    1046    1061    1045    1045    1076    1098    1073    1057    1072
    1065    1054    1051    1003    1077    1059    1075    1058    1024    1029
    1044     998    1054    1068    1082    1044    1054    1059    1082    1025
    1076    1058    1047    1113    1089    1072    1074    1041     995    1090
    1078    1079    1068    1058    1055    1047    1079    1047    1070    1055
    1072    1079    1031    1027    1046    1047    1046    1052    1025    1034
    1069    1065    1029    1017    1058    1069    1026    1022    1064    1069
    1066    1030    1058    1051    1066    1073    1001    1000    1069    1089
    1059    1060    1070    1002    1033    1030    1013    1063    1073    1111
    1091    1054    1082    1036    1051    1060    1076    1123    1100    1108
    1096    1085    1096    1073    1091    1094    1110    1126    1132    1147
    1107    1114    1134    1169    1258    1308    1365    1411    1386    1410
    1518    1549    1610    1798    2202    2820    4052    6038    8950   12528
   15128   14343   11922   10279    9602    9539    9550    8904    7598    5876
    4656    3744    2893    2196    1770    1616    1417    1400    1306    1315
    1261    1235    1190    1126    1168    1163    1065    1060    1106    1111
    1122    1079    1075    1061    1109    1121    1121    1068    1041    1068
    1094    1073    1080    1072    1035    1035    1065    1073    1063    1040
    1059    1105    1063    1087    1104    1062    1050    1036    1032    1061
    1062    1051    1022    1008    1031    1085    1059    1039    1039    1004
    1048    1033    1007    1026    1047    1031    1052    1050    1074    1054
    1052    1035    1033     983     957    1027    1056    1036    1030    1021
    1048    1040    1011    1001    1050    1048    1019    1017    1012    1060
    1084    1077    1002     985    1016    1054    1037    1073    1050    1034
    1043    1028    1037    1050    1021    1053    1094    1059    1022    1044
    1041    1043    1052    1008    1025    1090    1045    1104    1017     991
     955    1025    1046    1053    1014    1041    1074    1081    1006     985
    1025    1046     980    1026    1017    1068    1055    1023    1037    1062
    1028    1009    1036    1005     993    1044    1034    1062    1029    1022
    1064    1028    1054    1082    1079    1060    1040    1069    1073    1060
    1028    1028    1041    1073    1078    1046    1040    1042    1096    1078
    1045    1076    1082    1058    1050    1106    1101    1068    1022    1098
    1029    1013    1101    1023    1047    1067    1060    1059    1064    1044
    1027    1112    1025    1045    1083    1084    1050    1046    1061    1061
    1058    1044    1058    1075    1061    1079    1077    1044    1018    1005
    1022    1020    1028    1032    1038    1031    1024    1030    1015    1049
    1083    1085    1034    1046    1037    1087    1124    1044    1024    1062
    1091    1062    1077    1150    1027    1019    1026    1076    1078    1038
    1046    1065    1059    1060    1037    1076    1073    1072    1025    1048
    1051    1035    1027    1031    1050    1050    1034    1012    1073    1095
    1053    1025    1050    1031    1029    1071    1058    1024    1047    1050
    1065    1079    1068    1045    1045    1039    1067    1048    1032    1030
    1027     993    1036    1018    1064    1027    1017    1071    1096    1015
    1038     989    1039    1043    1038    1035    1055    1038    1006    1032
    1117    1043    1054    1041    1040    1039    1107    1050     995    1014
    1001    1035    1014    1031    1083    1019    1027    1021    1040    1018
    1021    1048    1033    1034    1025    1014    1045    1029    1028    1027
    1035    1064    1049    1077    1061    1040    1033    1006     972    1036
    1072    1043    1017    1040    1065    1047    1031    1031    1013    1042
    1024     986     994    1012    1052    1025    1072    1066    1000    1026
    1012    1085     970    1026    1034    1074    1011    1006     997    1018
    1062    1064    1035    1048    1038    1066    1065    1047    1046    1045
    1034    1032    1019    1029    1071    1020     978    1017     988     976
    1010    1005    1032    1002     998     998    1037    1002    1004    1035
    1004    1051    1036    1021    1072    1025    1054    1031    1036    1016
    1065    1047    1028    1081    1067    1014     991    1032     973    1023
     996    1018    1014    1058    1007     966    1033    1046    1024    1017
     974    1003     997    1031    1032    1009     992    1008    1030    1049
    1027    1010    1016    1024    1047    1045    1034    1022    1008    1014
    1008    1006    1008    1006    1002    1025    1013     960     986     990
    1005    1026    1022     986     992    1031    1054    1047    1015    1041
    1042    1013     999     993     992    1025    1028    1013    1048    1035
    1019    1041    1022     988    1007    1021    1065    1070    1003    1043
     999    1002    1012    1020     986     995    1009    1008     985     986
    1025    1020     994     976     967    1016    1063    1036    1017    1024
    1016     990     960    1012    1047    1014     981     970    1036    1025
     999     992     961    1015     996     971     976     993    1035    1098
    1048     947     987     979    1047    1048    1001     964    1014    1033
     983    1034    1022    1007    1024    1010    1015     999     987     987
    1000     997    1028    1050    1006    1019    1009     990    1006    1007
    1023    1020    1024    1048    1014     997    1005    1015    1008    1024
     999     988    1008     975    1039    1006    1028    1062    1048    1006
    1000    1038    1087    1048     995    1009     966    1034    1037     977
    1002    1011     999    1086    1039    1010    1010     971    1016    1070
    1026    1028    1031    1019     984    1017    1014    1011    1025    1037
     999    1005    1018    1036    1032    1030    1039    1046    1024    1002
     986     991    1000    1007     976    1012    1032    1003    1024    1027
    1049     978     958     959     973     944     962    1030     980     986
     970    1020    1007    1021     961    1006    1026     990     951    1038
    1022    1005    1049    1023    1016     993    1002    1036    1016    1022
     985    1024    1028    1019    1065     998    1024    1023    1016    1047
    1038    1010     960     962    1026    1014    1037    1057    1019    1029
     997    1017    1047    1005    1004    1001    1050     997    1016    1005
    1021    1013    1019    1023    1045    1003    1049    1010    1001     956
    1011    1022    1018     985    1020     971    1000    1058     972    1000
    1032    1021    1017    1006     992    1037     995    1023    1034    1031
    1017    1015     969     977     999    1014     985     999    1002     996
    1025    1043    1043    1040    1009     972     975     960     963    1001
    1005     989    1047    1027     999    1012    1008    1023    1002    1059
    1000     971     969    1037     992     985    1013     994    1033    1007
    1047    1043    1020    1007    1036     998    1010    1026     998     984
    1017    1051    1046    1041    1008    1012     977    1029    1047    1046
    1043    1006     985     994    1003     970     993    1012    1015     987
    1028    1007    1030    1060    1017     988     995    1023     998     981
     996    1018    1007     986     987    1020    1029     996     981    1008
     965    1014    1024    1007    1009    1035     996     968     997    1042
     955     996    1077    1018     990     991    1057    1021     980    1012
    1009     977    1025    1051    1039     994    1040    1051    1037    1020
    1031    1041    1016    1023    1040    1052    1048    1052    1092    1125
    1154    1118    1088    1076    1081    1078    1015    1044    1054    1065
    1071    1077    1049    1071    1052    1103    1083    1075    1105    1133
    1075    1130    1146    1194    1233    1386    1474    1811    2112    2688
    3156    3388    3258    2845    2501    2328    2117    1773    1663    1580
    1452    1321    1312    1239    1153    1193    1184    1130    1129    1127
    1123    1094    1094    1098    1104    1104    1107    1107    1056    1060
    1078    1076    1065    1052    1070    1023    1040    1041    1058    1063
    1028    1045    1043    1039    1076    1000    1065    1030    1081    1033
    1049    1002    1066    1013    1033    1053    1099    1004    1066    1050
    1020    1040    1013    1022    1067    1041    1021    1032    1062    1081
    1038    1057    1056    1051    1032    1014    1033    1041    1035    1032
    1000    1020    1030    1010    1003    1018    1019    1005    1061    1045
    1045    1064    1017    1052    1080    1075    1032    1016    1047    1047
    1063    1023    1052    1031    1034    1031    1056    1046    1003    1023
    1012    1023     989    1068    1033    1104    1043    1018    1057    1041
    1019     967    1054    1056    1060    1034    1020    1040    1032    1010
    1032    1044    1018    1006     997    1036    1002     970    1011    1028
    1039    1045    1017    1008    1036    1019    1028    1020    1041    1101
    1072    1054    1076    1060    1039    1049    1028     993    1024    1055
    1007     997    1054    1029    1030    1038    1000    1049    1019    1044
    1103    1036    1045     998    1096    1008    1034    1025    1079    1045
    1057     961    1034    1038    1038    1023    1035    1048    1001     986
    1025    1057    1073    1078    1044    1043    1063    1053    1052    1030
    1009    1035    1065    1042     995     984     990     997    1004    1040
    1058    1055    1071    1038    1040     996    1042    1021    1023    1035
    1049    1015    1057    1003    1004    1016    1042    1019    1055    1036
    1065    1018    1002    1042     981    1019    1023    1065    1056    1085
    1062    1012    1015    1032    1042    1044    1047    1038    1008     978
    1020    1073    1036    1014    1021    1027    1078    1048    1024    1057
    1044    1063    1036    1009    1008    1032     996    1024    1050    1054
    1008    1035    1042    1011    1009    1057    1058    1009    1044    1004
    1016    1021     995    1101    1070    1056    1000    1056    1108    1042
    1038    1055    1003    1087    1063    1087    1106    1073    1035    1058
    1027    1013    1012    1087    1065    1030    1015    1035    1057    1030
    1055    1018    1026    1050    1023    1061    1049     992    1000    1012
     988     971    1009    1006    1037    1029    1040    1033     989    1038
    1022    1015    1020    1049    1037    1050    1019    1014    1060     995
    1035    1016    1010     998    1060    1054    1066    1073    1091    1029
    1019     990    1011    1045    1064    1014    1035    1021    1016    1054
    1063    1037    1014    1016     999    1044     994    1059    1066    1034
    1006     971    1030    1070    1012    1020    1012    1033    1004    1024
    1051    1048    1012    1000     985    1027    1020    1065    1038    1041
    1095    1025    1001    1043    1081    1013    1007    1007    1065    1053
    1042    1041    1048    1109    1058    1111    1080    1097    1083    1023
    1059    1060    1021    1009    1085    1089    1069    1075    1068    1040
    1072    1035    1092    1086    1116    1136    1109    1122    1128    1106
    1140    1163    1122    1139    1166    1216    1234    1242    1271    1324
    1369    1480    1671    1993    2655    3614    4837    6307    6669    5837
    4759    3988    3348    2909    2692    2614    3047    3526    3825    3690
    3151    2697    2336    1981    1697    1415    1322    1257    1234    1129
    1105    1125    1074    1154    1149    1141    1074    1051    1067    1054
    1030    1064    1061    1048    1077    1063    1023    1025    1021    1006
    1042    1040    1048    1062    1045    1024    1033    1065    1054    1092
    1056    1048    1054    1051    1030    1054    1027    1029    1041    1060
    1047    1035     955    1020    1029    1089    1016    1060     998    1024
     987    1021    1015    1050    1031    1037    1048    1072    1062    1040
    1028    1029    1040    1018    1016    1033    1052     992     980     993
    1010    1061    1052    1051    1094    1062    1009    1017    1014    1053
    1070    1028     988    1008    1022    1019     970    1010    1041    1026
    1009    1011    1071    1026    1010    1019    1021    1052    1038    1029
    1055    1041     997    1040     968    1007    1027    1098     967    1031
     998    1049     994    1020     969    1013     961     973     983    1025
    1007     985    1011    1033    1026    1066     994     991    1038    1008
    1015    1024    1032    1008     978    1002     991    1029    1025     989
    1017    1020    1007    1012    1015    1013    1006    1033    1044    1038
    1022    1009    1051    1048    1001    1035     994    1030    1014    1014
     991     988    1007    1018    1073    1049     969    1022     991     960
    1034    1016    1010    1003    1028    1037    1016    1031    1047     979
    1023    1033     975     963    1019    1020    1014     948     940     984
    1008    1018    1042    1035     985     982     978     985    1006    1008
     961     984     969     956     976    1005    1009     978     987     969
    1032     985    1011     971    1029    1042    1025     980     991    1067
     974     990    1025     980     995    1008    1009    1020     992     980
     989    1005     975     964    1040     997     985    1019     983    1006
     990     977    1008    1040    1024     999     997     986    1019    1018
     995    1036    1043    1021    1018     989     974     969    1005     992
     983    1013    1067    1039    1044    1031     988    1017    1020    1007
     994     986    1031    1011    1046    1055    1055    1039    1016    1048
    1100    1119    1127    1272    1321    1550    1614    1511    1438    1386
    1388    1309    1235    1201    1160    1141    1146    1153    1094    1064
    1068    1083    1066    1045    1030    1010    1028    1019    1011    1022
    1021    1055    1052    1009    1007    1030    1014    1017    1005    1026
    1043    1027    1034    1017    1020    1066    1003     997    1038    1045
     995    1024    1056    1016    1052    1032     982    1010    1064     995
    1014    1029    1022    1006     972    1007     979     976     998     975
    1011     968    1034    1015     988    1008    1027    1045    1021    1052
    1088    1065    1007    1015    1012    1011     991     979    1001     988
    1017    1036     998     990    1008    1007    1014    1026    1055    1052
    1042    1050    1038     989    1015     961    1013    1008    1038    1039
     995    1024    1013    1052     992    1043     981    1018     989    1009
    1036     978    1024    1013     984     993    1009    1025     984     946
    1011    1002     981     996     997     952     996    1025    1001    1029
    1038    1036    1039    1022     999    1016    1014     981     973     990
    1009     983     992    1011    1042    1022    1035     988    1004    1011
    1011     959     954    1003    1033    1011    1076    1010    1000     949
    1001     994     967     977     996     990    1026    1007    1063     989
    1007    1082    1019    1062    1041    1029     974    1057     998     992
    1011    1046    1031    1038    1061    1049    1038    1027    1000    1014
    1031    1015    1040    1084    1037    1002    1015    1001     995    1027
    1040     981     986     992     991     993    1010     947     973    1021
    1033    1005     943     999    1018    1080     956     983    1001    1027
    1042    1012    1030    1029    1037    1068    1080    1018     972    1011
    1045    1096    1148    1157    1202    1255    1411    1463    1457    1411
    1376    1293    1249    1209    1170    1170    1196    1183    1129    1050
    1028    1070    1066    1044    1037    1070    1033    1023    1070    1077
    1060    1039    1052    1030     978    1029    1051     982     984    1032
    1031    1011    1029     992     997    1000    1081    1043    1020    1044
    1047    1045    1036    1029    1005     994    1020     978     999    1042
    1009     983    1044    1029    1050     999    1039    1047    1055    1043
    1034    1049    1031     993    1015    1041    1025    1006    1009    1011
    1012     988     993    1016    1034    1010    1017    1034    1005    1005
     972     999    1001    1021     988     996    1010    1037    1004    1022
     977    1041    1021    1040     972     979     982     996    1009     980
    1048    1003    1035    1020     979    1007    1044     983    1001     998
     999    1051    1051    1037    1018    1006    1007    1033    1026    1017
    1045    1026    1011    1036    1024    1011     958     958    1016    1024
    1053    1018     996    1027    1036    1004    1008    1014    1028    1039
    1021    1038     996    1008    1053    1059    1072     942    1051    1014
     986    1014    1088    1030     969    1024     994    1019    1073     966
     989    1001     985    1012    1074    1037    1063     994    1010    1001
    1029    1025     982     999    1051    1033    1025    1019     970    1037
    1047    1027    1016    1004    1035    1049    1070    1038    1027    1025
    1033    1018    1032    1041     983    1025    1015    1019    1030     986
    1014    1046     988    1003     970    1076    1027    1009    1049    1025
    1059    1037    1075    1003     970    1039     957    1033    1018    1012
    1014    1071    1051    1016     998     984     987    1008    1013    1007
    1049    1004    1008    1020    1036    1022    1030    1028    1011    1015
    1039    1009    1025    1031    1011    1027    1000    1023    1019    1028
    1024    1012    1004     999     991     994    1002     979    1023    1030
    1022     997    1004    1037     998    1038    1021    1030    1014    1031
     957    1000    1054     992     960     987    1000     997     980    1049
    1072    1017     998    1025    1059    1026     995    1006    1016    1037
    1040     999    1013    1007    1009    1016     997    1010    1003    1022
    1034    1035    1028    1030    1048    1054    1048    1037    1047    1024
    1043    1065    1078    1030    1048    1077    1100    1095    1063    1094
    1033    1122    1121    1050    1099    1238    1286    1467    1729    2136
    2603    3008    2983    2664    2426    2117    1802    1688    1451    1397
    1353    1326    1479    1654    1872    1977    1914    1790    1645    1532
    1417    1270    1186    1175    1137    1086    1068    1089    1057    1054
    1041    1071    1082    1048    1034    1037    1053    1019    1015    1014
    1021     994    1008     972    1002     972    1039    1033     987     970
    1025    1058    1015    1040     995    1055    1009     989    1013     993
    1020     962     968    1010    1035    1042    1019     994     990    1004
    1025     982     946     986    1013     998    1004    1048    1012    1012
    1021    1040    1022     996     992    1003    1020    1007    1017    1066
    1034     977    1015    1029    1002    1011    1020    1001    1010    1016
    1011     976     989     990     971    1006     945    1033    1030    1023
    1009    1001    1028     966     994     989     995    1004     957     989
    1006    1000    1022     970    1024    1080    1031    1019    1008    1012
    1051    1049     976    1015    1023    1027    1034    1017     999     978
     987     993    1001    1031    1040    1040    1024    1027    1000    1035
    1052    1036     996     981     999     938    1018    1047     992    1032
    1018     996     961     998     980     974    1008    1048     949     989
    1040    1056    1026    1021     948    1018    1014     975    1073     984
     997    1035    1018     982     987     989    1025     981     983     991
     991    1010    1021     969     993     998     971     986    1030    1019
    1005    1049    1012     971    1011     994    1012    1044     984     979
    1010    1005    1010    1003    1042    1025     986    1029     998    1029
    1035     997    1006    1005    1020    1063    1019    1005     990    1050
     998    1014    1032    1010    1081    1031    1014    1020    1038    1035
     988     991    1030    1009     996    1022    1032    1034    1020     997
     991    1028    1016    1021    1077    1077    1074    1067    1015    1021
    1015    1015    1003    1021    1044    1044    1049    1023    1086    1057
    1005    1025    1074    1048    1085    1051    1076    1056    1043    1063
    1105    1021    1109    1156    1142    1302    1403    1537    1956    2266
    2481    2338    2172    1879    1626    1528    1490    1292    1248    1171
    1216    1306    1418    1528    1662    1715    1663    1544    1464    1337
    1231    1187    1194    1149    1081    1047    1056    1036    1044    1062
    1036    1012    1017    1021    1003    1016    1024    1012    1017    1034
    1037    1056    1091    1101    1051    1007     978    1005    1030    1043
     964    1005    1023     990    1025    1054    1039    1018    1016    1011
     999    1063     990    1030     984    1070    1039     965    1064    1017
     995    1010    1031    1012    1000    1026    1014    1002    1032    1067
    1061    1051    1055    1019     957     992     994     966     998    1020
    1003    1014    1017    1069    1019    1003    1021     967    1032    1023
     995     993    1002    1041    1052    1038     965    1027     943    1036
     981    1013     939    1000    1039    1053     977     958    1022    1020
     960     977    1003    1021     967    1019    1015    1047    1027    1015
    1016    1002     990     990    1022    1052    1022    1041    1033     992
    1002    1020    1054    1059    1028    1046    1063    1002     991     987
     982     992     995     976    1004    1015    1030    1044     991    1015
    1050    1074    1023     997    1040     941    1008    1018    1001    1000
    1041    1015    1026     985    1023     998     999    1007     973     993
     988    1004     941     996    1027     969     979     984    1021     999
    1001     976     960    1011    1028     995     990     954     985     985
     984     989     947     954    1003     975    1000     981     996    1005
     966     973    1002    1012     991     980    1003     980     974     941
     994     972     952     996     965    1017     946    1019     983    1006
    1028    1005     917    1006    1017     989    1006     947     938     940
     943     989     990     984    1010    1017     987     975     970     978
     987     965     927     950     974    1017    1011     978     984     990
    1026    1036    1012     988     985    1000     977     956     964     936
     971    1036    1005     970     946     983    1022     951     973    1020
     976    1012    1016    1029     934     935    1027     996     910    1012
     997    1045    1076    1009     998     994     973    1027    1024     975
     979     975     976     980    1014     996     986    1003     995     948
     942     983     963     928     957     996    1000     978     971    1001
    1050    1052    1034    1036    1010    1060    1146    1128    1128    1145
    1139    1112    1055    1054    1110    1045    1038    1042    1011     994
    1007    1010    1012    1004    1029    1048    1004     998     987    1036
    1053    1064     996    1007    1025    1012    1063    1028     982    1020
    1024     937     992    1044     987    1017     992     982    1006    1005
     982     983     975     988    1018    1003     986     993    1007     964
     943     974     991     986     987     971     998    1012    1001     965
     989    1045    1013    1033    1005     982    1028    1007    1017    1026
     967     969     919    1044    1028    1024    1033    1030     989     998
     988     996    1011    1002    1049    1010    1028    1060     999     969
     975     996    1005    1006     994    1004     998    1015     997    1000
     987     932     973    1003     948     945     979     994     976     990
     997     981     977     990     992    1018     958    1025    1033    1044
     982     994     983     976    1012     973     999    1021    1020     976
     976     969    1026     979     962     983    1038    1056    1029     986
    1016    1025    1004     982    1017     992     994     990     981    1048
    1047                                                                        
