Co 820                                                                          
BANK       1    4941     494   CONST  1600.0     1.7     0.0     0.0         STD
     854     910     927     908     947     904     915     932     867     896
     882     902     916     859     875     916     943     919     917     849
     868     888     888     864     887     900     888     921     887     852
     889     914     910     899     880     855     863     890     881     898
     906     890     950     944     923     868     860     885     907     877
     942     852     865     890     859     844     895     883     882     925
     909     885     954     918     896     844     886     884     938     891
     883     901     869     881     907     901     882     907     891     916
     907     897     916     888     853     859     912     910     907     887
     882     888     863     900     888     885     881     893     898     868
     908     935     880     882     909     909     911     880     860     881
     889     884     892     906     901     911     883     936     902     908
     932     943     898     913     890     922     917     863     902     907
     868     885     893     888     886     842     887     864     879     909
     911     874     886     885     890     891     915     922     898     912
     915     893     869     882     897     884     881     903     921     896
     874     905     906     930     880     907     855     916     866     914
     941     921     892     930     937     904     843     854     881     899
     887     920     921     894     911     883     897     843     868     903
     890     904     903     855     900     917     919     932     925     918
     929     917     905     910     918     910     887     893     912     915
     916     899     916     919     855     874     878     883     872     859
     940     950     949     905    1020    1034    1049    1051    1181    1445
    1515    1856    1961    1925    1652    1351    1165    1070    1004     940
     988     926     940     977     972     939     956     969     939     952
     914     918     977     957     905     921     904     939     950     943
     934     928     938     924     929     921     941     938     918     935
     936     917     897     927     931     902     930     936     950     954
     925     941     968     953     873     871     905     893     931     948
     906     905     903     919     886     892     922     957     916     915
     927     845     942     946     961     949     925     950     941     925
     893     933     923     919     918     914     909     938     935     927
     928     916     923     905     886     888     913     902     950     958
     958     938     964     963     970     952     940     913     934     930
     957    1009     999     996    1064    1057    1061    1180    1226    1276
    1558    1825    2279    2727    3488    3594    3318    2878    2363    1856
    1433    1235    1092    1023     977     930     989    1004     970     973
     946     947     930     945     956     969     984     960     932     928
     946     964     929     920     925     971     955     944     927     870
     893     919     945     952     921     945     951     918     913     962
     879     938     904     938     929     966     918     981     936     936
     933     890     921     925     975     893     929     909     912     953
     949     938     928     894     900     943     902     915     916     884
     923     965     984     951     942     928     934     946     927     936
     965     915     936     938     919     892     916     933     927     940
     945     928     932     968     934     928     940     932     933     878
     953     964     977     928     916     999     941     917     963     948
     928     942     922     962     934     940     911     925     922     883
     937     919     911     912     907     882     885     895     918     961
     936     937     918     906     947     922     913     923     893     911
     944     928     900     950     926     907     941     963     912     937
     933     926     931     992     976     951     919     946     958     967
     891     964     948     941     926     995     945     898     909     974
     943     929     929     920     931     944     956     989     950     967
     960     950     873     885     915     933     932     913     916     930
     953     979     943     924     917     909     949     888     901     970
     951     952     965     931     924     938     958     944     923     897
     927     949     940     956     919     939     922     918     945     998
     944     926     995     901     970     986     980     976     933     948
     932     911     953     916     929     922     932     933     933     942
     957     951     916     940     915     915     938     957     949     944
     952     989     949     937     921     914     943     956     968     955
     943     920     961     955     888     904     955     971    1004     947
     898     957     949    1019     967     965     982     882     944    1019
     956     933     945     924     913     947     999     946     963     949
     900     917     919     988     954     926     940     939     944     931
     937     936     943     952     966     930     927     931     940     972
     995     957     955     932     926     943     946     969     963     968
     974     980     979     992     963     954     980     967     965     969
     929     989     962     894     976     940    1008     984     977     932
     962     974     951     931     947     951     993    1003     943     954
     976     977    1016     966     978     992     958     962     955     961
     953     963     964     935     973     965     944     954     970     980
     996     984     955     930     953     939     940     957    1032     991
    1012     991     972     940     957     951     953     989     955     972
     916     946     959     962     998     979    1006     966    1007     995
     989     933     951     979     947     971    1000    1021     987     951
     918     960     990     980    1004    1009    1012    1010     987     989
     974    1027    1024     989     988    1007     994     944     937     987
     998     986    1012    1005     962     984     981    1021     999     961
     957     999     975     999    1031    1007    1031    1010     994     952
    1042     953     990     950    1000    1021     967    1013     964     977
    1046    1036    1017     998     975    1008    1000     994    1016    1005
     988     986    1023    1024    1000     969     982     988     966     981
    1008    1006    1008    1038    1013     991    1045    1058    1042    1030
    1065    1005    1007    1006    1020     984    1040     986    1030    1041
    1058    1076    1048    1032    1038    1056    1075    1003    1053    1086
    1015    1016    1043    1007    1019    1001     979     994    1048    1044
    1036     983    1021    1065    1035    1024    1061     982     965    1025
    1046    1021    1048    1075    1079    1026    1033    1059    1066    1010
     979    1033    1050    1071     998     986    1038    1040    1011    1007
    1030    1037    1029    1030     986     998     981    1055    1029    1039
    1066    1021    1025    1029    1055    1038    1073    1041    1050    1005
    1013    1072    1064    1015    1022    1058     986    1021    1077    1079
    1079    1017    1033    1075    1042    1084    1098    1061    1058    1059
    1046    1043    1050    1034    1046    1059    1059    1054    1040    1106
    1097    1068    1017     997    1037    1043    1019    1052    1127    1191
    1122    1144    1123    1131    1147    1184    1171    1177    1309    1298
    1393    1613    1880    2259    3033    3512    3852    3447    2834    2230
    1882    1553    1374    1325    1245    1211    1173    1133    1129    1152
    1118    1113    1085    1071    1128    1126    1141    1132    1112    1089
    1105    1116    1109    1091    1104    1125    1115    1070    1064    1106
    1150    1135    1062    1068    1074    1075    1108    1125    1039    1065
    1089    1136    1032    1102    1080    1084    1047    1077    1095    1043
    1126    1116    1015    1080    1171    1091    1072    1111    1092    1094
    1078    1060    1068    1056    1084    1093    1028    1101    1119    1074
    1100    1060    1093    1112    1064    1050    1087    1094    1099    1114
    1096    1070    1045    1052    1060    1082    1062    1042    1071    1098
    1087    1113    1129    1129    1108    1104    1104    1090    1062    1064
    1008    1075    1027    1051    1048    1077    1102    1067    1065    1000
    1056    1040    1092    1070    1083    1071    1109    1095    1083    1083
    1077    1090    1130    1102    1041    1064    1032    1060    1117    1078
    1045    1075    1058    1028    1030    1061    1084    1052    1054    1072
    1068    1100    1054    1074    1094    1066    1118    1104    1074    1067
    1092    1065    1040    1072    1097    1081    1055    1070    1088    1074
    1062    1114    1058    1099    1053    1041    1103    1099    1098    1068
    1128    1064    1052    1087    1089    1064    1100    1123    1091    1105
    1102    1120    1093    1124    1117    1139    1162    1153    1169    1223
    1261    1284    1314    1422    1516    1673    2014    2544    3358    4512
    5833    6917    6995    6268    5290    4825    4548    3874    3030    2333
    1848    1548    1405    1305    1316    1216    1175    1178    1141    1129
    1120    1137    1099    1090    1009    1083    1105    1041    1058    1077
    1094    1076    1096    1027    1079    1117    1089    1091    1013    1065
    1076    1076    1076    1043    1063    1117    1091    1067    1107    1082
    1039    1057    1077    1066    1043    1005    1056    1079    1045    1016
    1052    1105    1096    1114    1094    1040    1032    1045    1045    1024
    1047    1069    1048    1050    1077    1090    1000    1079    1063    1016
    1063    1099    1054    1088    1053    1101    1109    1117    1061    1078
    1069    1102    1062    1041    1074    1061    1068    1098    1090    1074
    1099    1131    1083    1095    1075    1053    1110    1162    1148    1132
    1114    1133    1179    1240    1210    1135    1116    1143    1183    1210
    1277    1297    1262    1282    1291    1289    1365    1376    1446    1451
    1522    1758    1885    2300    2907    3752    5159    6737    8108    9105
    8310    6421    4989    3982    3072    2493    2095    1877    1744    1611
    1497    1465    1412    1355    1370    1225    1257    1269    1227    1230
    1213    1229    1219    1198    1231    1223    1217    1228    1233    1204
    1225    1226    1189    1199    1186    1161    1189    1220    1190    1157
    1169    1170    1208    1149    1154    1172    1214    1186    1176    1157
    1198    1138    1179    1218    1195    1141    1168    1154    1133    1145
    1202    1143    1090    1112    1134    1156    1136    1148    1132    1162
    1142    1112    1100    1129    1173    1119    1112    1157    1144    1093
    1100    1126    1143    1140    1176    1199    1184    1142    1153    1154
    1133    1090    1104    1158    1152    1172    1212    1187    1173    1232
    1260    1296    1377    1468    1516    1437    1340    1255    1190    1194
    1182    1125    1145    1105    1127    1108    1178    1152    1141    1151
    1136    1162    1198    1103    1078    1157    1192    1161    1134    1151
    1097    1147    1131    1106    1132    1171    1139    1083    1079    1118
    1131    1173    1130    1124    1130    1115    1118    1091    1095    1134
    1128    1126    1129    1111    1109    1127    1132    1145    1124    1078
    1107    1123    1109    1188    1124    1126    1137    1133    1154    1107
    1176    1200    1163    1147    1150    1098    1174    1147    1143    1141
    1136    1169    1161    1104    1116    1100    1139    1136    1151    1106
    1170    1131    1110    1129    1166    1097    1086    1158    1168    1155
    1130    1131    1138    1154    1156    1144    1180    1152    1094    1161
    1219    1214    1216    1267    1365    1368    1321    1307    1262    1297
    1294    1313    1297    1284    1331    1303    1369    1337    1463    1503
    1631    1745    1759    1870    2015    2178    2339    2766    3486    4541
    6176    8893   12764   16686   19613   19806   17169   13974   12344   11901
   11497   10090    7819    5434    3846    2888    2408    2059    1837    1723
    1589    1518    1499    1407    1329    1314    1290    1287    1207    1197
    1196    1178    1228    1219    1207    1201    1159    1139    1112    1126
    1166    1183    1158    1167    1201    1128    1171    1133    1174    1123
    1161    1124    1147    1165    1168    1102    1104    1123    1131    1124
    1131    1082    1168    1133    1153    1169    1098    1076    1105    1112
    1131    1166    1151    1121    1120    1133    1112    1081    1109    1149
    1107    1109    1124    1132    1114    1128    1121    1130    1142    1108
    1131    1193    1180    1212    1265    1320    1331    1255    1175    1225
    1163    1180    1147    1176    1125    1092    1144    1198    1127    1188
    1171    1144    1163    1223    1217    1199    1283    1432    1557    1784
    2062    2345    2464    2277    2038    1893    1837    1884    1864    1658
    1473    1363    1248    1163    1176    1192    1160    1133    1136    1145
    1206    1155    1100    1091    1054    1066    1103    1100    1078    1121
    1101    1109    1110    1089    1115    1119    1149    1117    1121    1073
    1064    1059    1093    1087    1092    1044    1067    1089    1070    1090
    1083    1071    1107    1100    1084    1086    1128    1044    1106    1076
    1067    1060    1078    1088    1098    1103    1127    1140    1102    1065
    1068    1096    1050    1069    1080    1062    1072    1105    1128    1092
    1065    1076    1080    1064    1075    1079    1052    1082    1078    1074
    1086    1116    1058    1094    1111    1056    1066    1124    1101    1052
    1098    1125    1079    1116    1065    1076    1061    1145    1101    1147
    1133    1103    1109    1072    1143    1172    1126    1114    1189    1183
    1198    1224    1251    1321    1456    1660    1918    2258    2641    2968
    3049    2851    2539    2192    1889    1688    1597    1508    1374    1259
    1236    1252    1231    1208    1169    1165    1110    1099    1148    1109
    1105    1101    1098    1110    1088    1089    1090    1166    1080    1085
    1047    1166    1058    1106    1086    1100    1084    1109    1071    1101
    1170    1050    1056    1122    1099    1112    1163    1101    1067    1067
    1090    1105    1086    1108    1099    1107    1070    1058    1102    1098
    1082    1070    1096    1100    1076    1091    1084    1057    1060    1059
    1098    1084    1038    1051    1045    1044    1095    1041    1077    1122
    1057    1081    1072    1099    1088    1081    1056    1050    1077    1161
    1110    1019    1053    1059    1049    1018    1061    1027    1039    1050
    1080    1047    1062    1046    1052    1106    1096    1073    1041    1030
    1060    1098    1082    1080    1074    1086    1081    1115    1082    1087
    1114    1085    1107    1102    1068    1049    1059    1148    1167    1227
    1275    1279    1295    1268    1195    1145    1157    1168    1223    1216
    1139    1050    1128    1090    1059    1073    1082    1062    1052    1051
    1096    1054    1078    1058    1080     995    1067    1068    1084    1084
    1066    1077    1045    1063    1074    1118    1066    1054    1058    1058
    1038    1068    1085    1105    1078    1085    1102    1105    1090    1072
    1067    1068    1066    1042    1039    1076    1114    1075    1041    1055
    1047    1015     984    1039    1058    1045    1059    1053    1111    1101
    1015    1066    1030    1020    1066    1008    1072    1048     984    1091
    1072    1072    1041    1064    1034    1096    1057    1049    1093    1112
    1082    1095    1101    1045    1078    1081    1077    1066    1035    1103
    1116    1110    1116    1100    1088    1054    1048    1038    1048    1094
    1076    1067    1045    1032    1046    1068    1062    1057    1067    1070
    1047    1006    1057    1066    1082    1082    1050    1052    1023    1055
    1117    1047    1090    1131    1099    1059    1064    1104    1077    1101
    1063    1098    1068    1118    1123    1041    1086    1138    1113    1090
    1094    1135    1127    1122    1112    1118    1148    1160    1183    1175
    1195    1194    1204    1229    1220    1256    1353    1427    1529    1714
    1968    2386    2983    3659    4461    5062    5124    4590    3851    3361
    3203    3324    3391    3162    2838    2425    2038    1749    1544    1476
    1308    1223    1229    1244    1197    1177    1115    1117    1110    1141
    1172    1161    1163    1140    1100    1144    1159    1104    1100    1067
    1080    1116    1141    1129    1095    1058    1104    1080    1076    1114
    1101    1097    1111    1126    1103    1085    1090    1077    1116    1044
    1060    1079    1102    1105    1139    1129    1107    1099    1101    1110
    1114    1131    1118    1135    1088    1038    1089    1110    1077    1068
    1113    1112    1036    1113    1152    1097    1077    1082    1115    1084
    1056    1068    1080    1101    1108    1079    1068    1089    1100    1123
    1092    1104    1117    1115    1110    1105    1111    1133    1149    1131
    1093    1079    1059    1068    1120    1155    1144    1094    1069    1070
    1112    1145    1099    1105    1121    1085    1100    1103    1067    1071
    1088    1093    1063    1075    1043    1112    1128    1108    1109    1065
    1075    1061    1134    1102    1199    1130    1098    1132    1138    1131
    1101    1139    1106    1099    1090    1113    1096    1099    1061    1068
    1058    1082    1129    1094    1061    1079    1087    1107    1089    1060
    1105    1123    1087    1103    1112    1112    1114    1094    1100    1063
    1061    1074    1074    1093    1085    1111    1050    1087    1091    1085
    1091    1145    1058    1131    1089    1058    1082    1081    1094    1079
    1096    1131    1068    1125    1061    1027    1031    1129    1071    1058
    1065    1079    1112    1114    1114    1088    1087    1080    1099    1113
    1121    1123    1096    1070    1080    1048    1083    1130    1070    1040
    1030    1027    1071    1069    1079    1120    1130    1103    1071    1091
    1027    1025    1075    1045    1096    1099    1103    1067    1125    1131
    1099    1089    1054    1034    1089    1048    1159    1084    1079    1069
    1045    1061    1111    1102    1055    1057    1054    1010    1069    1074
    1128    1158    1089    1054    1056    1034    1043    1041    1050    1055
    1073    1085    1043    1010    1033    1030    1030    1026    1041    1020
    1020    1057    1062    1025    1050    1039    1062    1075    1036    1026
    1048    1133    1144    1103    1080    1113    1103    1105    1041    1126
    1047    1117    1051    1067    1117    1039    1104    1094    1145    1098
     982    1085    1062    1081    1070    1059    1058    1058    1047    1038
    1060    1066    1094    1106    1042    1035    1036    1031    1076    1111
    1071    1049    1084    1068    1054    1036    1025    1042    1076    1100
    1084    1110    1094    1075    1115    1066    1023    1048    1114    1110
    1101    1078    1120    1115    1119    1193    1193    1241    1312    1375
    1481    1516    1467    1424    1353    1282    1229    1187    1238    1166
    1122    1102    1120    1164    1117    1121    1125    1105    1066    1046
    1037    1075    1130    1065    1045    1059    1059    1070    1082    1063
    1069    1075    1082    1052    1044    1063    1080    1099    1091    1070
    1087    1085    1112    1047    1066    1096    1072    1046    1045    1106
    1086    1108    1084    1077    1067    1083    1058    1039    1119    1078
    1041    1051    1061    1016    1106    1081    1097    1082    1128    1083
    1053    1090    1071    1073    1086    1091    1042    1079    1045    1055
    1070    1100    1112    1075    1038    1065    1096    1079    1068    1097
    1074    1039    1054    1050    1033    1052    1050    1016    1074    1092
    1068    1064    1079    1029    1117    1105    1078    1061    1044    1080
    1043    1053    1038    1059    1051    1088    1039    1045    1005    1069
    1001    1018    1052    1061    1074    1075    1115    1074    1012    1043
    1069    1078    1044    1071    1074    1086    1091    1044    1036    1047
    1068    1071    1056    1067    1061    1053    1089    1112    1069    1065
    1077    1030    1044    1073    1070    1052    1077    1037    1068    1112
    1165    1091    1040    1059    1067    1040    1087    1063    1104    1038
    1060    1000    1015    1080    1084    1043    1063    1015    1106    1044
    1027    1053    1064    1059    1056    1066    1090    1059    1040    1059
    1058    1045    1076    1065    1099    1098    1061    1072    1106    1104
    1129    1114    1105    1123    1086    1063    1062    1072    1099    1113
    1119    1119    1118    1120    1101    1141    1144    1178    1244    1195
    1171    1216    1312    1411    1465    1629    1800    2045    2421    2678
    2836    2899    2571    2412    2059    1972    1753    1590    1551    1471
    1421    1435    1250    1241    1230    1172    1179    1162    1160    1156
    1112    1130    1137    1147    1136    1088    1108    1077    1099    1092
    1072    1081    1079    1094    1089    1099    1123    1102    1087    1131
    1127    1084    1062    1111    1089    1086    1073    1167    1094    1101
    1133    1122    1070    1092    1090    1076    1132    1146    1098    1142
    1057    1095    1069    1100    1096    1123    1133    1108    1056    1056
    1125    1128    1084    1070    1082    1096    1109    1060    1069    1071
    1096    1062    1054    1080    1069    1043    1091    1099    1107    1087
    1053    1062    1063    1023    1083    1089    1064    1065    1038    1077
    1126    1089    1101    1087    1121    1078    1111    1092    1112    1074
    1074    1085    1122    1032    1100    1090    1033    1069    1081    1094
    1074    1071    1093    1113    1186    1197    1181    1109    1129    1144
    1130    1106    1152    1118    1117    1106    1086    1111    1067    1091
    1089    1067    1081    1111    1125    1129    1087    1071    1112    1155
    1143    1128    1110    1115    1127    1103    1110    1117    1136    1168
    1224    1326    1484    1604    1796    2060    2208    2178    2008    1798
    1577    1540    1555    1645    1569    1660    1647    1624    1483    1323
    1257    1209    1182    1133    1121    1109    1113    1063    1100    1103
    1111    1068    1082    1071    1102    1129    1106    1103    1101    1084
    1072    1066    1074    1082    1084    1043    1071    1132    1114    1057
    1127    1092    1091    1069    1074    1071    1067    1074    1084    1097
    1058    1044    1096    1099    1092    1081    1054    1087    1078    1069
    1188    1077    1096    1035    1091    1114    1086    1019    1054    1002
    1039    1087    1101    1123    1083    1058    1134    1123    1048    1035
    1002    1039    1082    1073    1109    1079    1095    1062    1042    1082
    1095    1084    1033    1021    1052    1058    1074    1079    1096    1094
    1053    1030    1112    1111    1127    1146    1087    1119    1080    1071
    1075    1115    1104    1081    1080    1120    1095    1057    1065    1141
    1153    1074    1085    1123    1061    1075    1138    1115    1108    1118
    1148    1085    1088    1130    1109    1086    1084    1046    1051    1050
    1058    1048    1065    1073    1040    1055    1071    1072    1113    1127
    1119    1071    1058    1095    1112    1078    1057    1097    1129    1114
    1083    1089    1103    1118    1114    1097    1088    1099    1118    1077
    1114    1161    1105    1155    1121    1163    1157    1151    1089    1183
    1175    1204    1179    1207    1202    1254    1261    1310    1344    1481
    1611    1791    1989    2304    2564    2912    3137    3012    2773    2517
    2299    2066    1882    1788    1657    1594    1484    1395    1386    1357
    1343    1296    1210    1228    1249    1187    1209    1167    1185    1162
    1147    1150    1163    1119    1134    1135    1186    1193    1219    1129
    1137    1143    1187    1182    1172    1121    1220    1247    1194    1242
    1237    1209    1243    1284    1268    1254    1325    1309    1363    1410
    1423    1516    1691    1883    2155    2562    3084    3796    4656    5342
    5588    5247    4582    3887    3313    2987    2954    3040    3258    3471
    3465    3295    2923    2447    2112    1853    1591    1541    1459    1356
    1293    1289    1254    1231    1226    1213    1189    1171    1121    1144
    1136    1123    1129    1179    1156    1060    1110    1149    1162    1104
    1097    1089    1121    1108    1115    1106    1122    1138    1112    1061
    1124    1161    1122    1087    1063    1115    1124    1114    1109    1098
    1132    1121    1087    1077    1068    1098    1121    1122    1074    1062
    1113    1119    1102    1103    1072    1056    1139    1103    1087    1072
    1104    1116    1076    1096    1065    1033    1094    1096    1092    1031
    1084    1092    1113    1075    1021    1068    1098    1064    1053    1069
    1091    1044    1095    1131    1083    1074    1092    1080    1044    1090
    1104    1107    1072    1055    1062    1074    1065    1067    1051    1062
    1111    1078    1041    1065    1091    1050    1092    1122    1113    1038
    1045    1093    1078    1090    1137    1088    1086    1111    1116    1188
    1087    1114    1106    1158    1219    1167    1173    1161    1178    1163
    1189    1126    1196    1193    1141    1172    1143    1087    1126    1137
    1068    1085    1083    1085    1107    1089    1045    1035    1041    1069
    1084    1108    1087    1056    1078    1081    1060    1075    1109    1114
    1100    1061    1061    1046    1071    1137    1084    1023    1031    1068
    1020    1040    1117    1107    1049    1061    1070    1075    1086    1075
    1096    1059    1131    1012    1099    1079    1033     976    1044    1074
    1090    1074    1057    1054    1069    1043    1033    1060    1086    1082
    1104    1056    1053    1047    1051    1046    1092    1126    1037     997
    1056    1042    1058    1036    1070    1088    1057    1049    1068    1057
    1048    1040    1058    1085    1086    1078    1099    1064    1065    1038
    1059    1092    1044    1086    1089    1045    1031    1051    1080    1041
    1039    1080    1065    1016    1053    1106    1058    1063    1047    1052
    1055    1058    1052    1075    1072    1011    1069    1065    1058    1051
    1064    1063    1031    1019    1071    1101    1084    1070    1075    1091
    1056    1044    1013    1054    1084    1074    1052    1058    1112    1069
    1053    1058    1091    1103    1059    1069    1060    1092    1102    1035
    1022    1028    1073    1042    1100    1140    1117    1072    1047    1104
    1111    1032    1027    1088    1089    1012    1061    1078    1106    1101
    1075    1082    1050    1067    1072    1099    1041    1092    1080    1064
    1060    1116    1042    1043    1046    1071    1107    1080    1063    1076
    1061    1037    1090    1090    1050    1076    1064    1078    1072    1084
    1093    1138    1089    1046    1060    1081    1059    1097    1063    1065
    1085    1074    1116    1122    1048    1070    1060    1020    1055    1046
    1079    1040    1067    1067    1094    1123    1041    1106    1107    1118
    1102    1063    1133    1110    1071    1140    1165    1179    1138    1127
    1160    1196    1169    1193    1186    1192    1150    1180    1231    1262
    1298    1361    1406    1414    1480    1615    1812    2141    2462    3040
    3888    4622    5296    5598    5513    4885    4002    3322    2899    2789
    2700    2747    3040    3359    3481    3387    3234    2804    2325    2076
    1776    1597    1378    1362    1284    1319    1248    1191    1232    1148
    1178    1105    1123    1183    1165    1146    1147    1076    1087    1110
    1120    1102    1040    1047    1054    1046    1055    1081    1095    1119
    1115    1123    1088    1087    1092    1090    1088    1084    1057    1017
    1005    1107    1044    1069    1103    1101    1078    1071    1087    1096
    1100    1141    1155    1150    1092    1110    1134    1077    1075    1106
    1105    1103    1132    1091    1117    1091    1117    1090    1053    1037
    1034    1071    1058    1078    1102    1099    1071    1091    1081    1073
    1060    1065    1074    1054    1093    1133    1106    1047    1063    1077
    1054    1059    1038    1046    1051    1049    1039    1060    1065    1038
    1045    1085    1036    1098    1100    1051    1036    1011    1051    1103
    1006    1052    1038    1038    1023    1046    1015    1115    1046    1060
    1073    1095    1060    1055    1091    1073    1041    1077    1036    1010
    1001    1069    1070    1010    1026    1046    1038    1048    1038    1046
    1040    1012    1010    1045    1088    1100    1096    1080    1047    1069
    1080    1061    1014    1020    1047    1031    1026    1025    1078    1054
    1053    1030    1013    1076    1090    1055    1061    1087    1065    1073
    1031    1042    1083    1045    1019    1051    1042    1044    1071    1053
    1030    1060    1052    1003    1043    1089    1086    1088    1051    1043
    1061    1040    1053    1013    1041    1030    1054    1073    1083    1055
    1054    1092    1091    1066    1051    1071    1077    1039    1043    1034
    1082    1107    1031    1034    1052    1058    1072    1056    1050    1045
    1046    1093    1153    1063    1078    1120    1147    1180    1238    1219
    1269    1221    1231    1211    1178    1144    1144    1159    1155    1142
    1161    1159    1176    1166    1161    1163    1206    1144    1142    1159
    1155    1210    1255    1237    1279    1327    1332    1292    1232    1210
    1170    1156    1144    1091    1123    1175    1133    1100    1078    1110
    1124    1079    1059    1115    1122    1082    1031    1051    1091    1079
    1020    1004    1032    1072    1058    1014    1085    1110    1129    1052
    1041    1106    1042    1041    1064    1057    1054    1038    1039    1063
    1023    1064    1052    1081    1074    1040    1037    1035    1043    1035
    1055    1095    1099    1076    1091    1071    1102    1125    1077    1106
    1139    1185    1191    1192    1155    1098    1083    1070    1062    1092
    1104    1108    1120    1023    1047    1068    1078    1077    1084     997
    1079    1061    1098    1059    1109    1069    1059    1086    1029    1106
     990    1063    1125    1099    1119    1063     997    1043    1044    1050
    1023    1049    1032    1063    1072    1041    1053    1079    1090    1053
    1084    1073    1033    1047    1058    1072    1071    1070    1072    1056
    1071    1060    1029    1060    1036    1091    1053    1101    1081     980
    1058    1013    1059    1029    1025    1073    1099    1035    1017    1012
    1056    1050    1067    1109     997    1101    1024    1059    1031    1004
    1111    1082    1081    1033    1082    1083    1064    1112    1053    1054
    1067    1052    1076    1016    1020    1018    1071    1093    1058    1040
    1055    1070    1063    1083    1061    1070    1091    1064    1028    1026
    1021    1048    1066    1053    1084    1075    1037    1046    1092    1082
    1020    1058    1027    1068    1034    1050    1109    1028    1041    1035
    1020    1000    1145    1084    1033    1027    1059    1052    1081    1071
    1083    1129    1049    1092    1034    1021    1003    1071    1024    1033
    1029    1035    1125    1126    1068    1037    1033    1023    1057    1035
    1031    1028    1022    1037    1043    1060    1072    1050    1035    1004
    1010    1038    1044    1064    1037    1041    1025    1040    1045    1061
    1044    1068    1032    1010    1117    1026    1023     993    1018    1019
    1007    1006    1078    1027    1074    1050    1111    1052    1054    1048
    1002    1030    1039     998     982     978    1020    1053    1060    1026
    1065    1119    1083    1072    1039    1019    1010    1030    1057    1048
     993     992    1029    1050    1019    1019    1004    1059    1039    1013
    1044    1016     985    1005    1013    1057    1086    1015    1003    1046
    1067    1046    1053     986    1006    1038    1043    1073    1033    1060
    1054    1024    1055    1145    1079    1088    1061    1132    1174    1131
    1122    1182    1164    1167    1116    1119    1118    1069    1082    1085
    1089    1053     990    1037    1063    1067    1091    1089    1048    1049
    1044    1056    1073    1055    1026    1053    1032    1059    1081    1077
    1065    1037    1070    1082    1044    1052    1080    1047    1081    1084
    1067    1124    1057    1177    1264    1256    1365    1322    1344    1349
    1235    1212    1176    1106    1131    1105    1119    1144    1182    1181
    1174    1147    1149    1200    1216    1150    1124    1105    1089    1072
    1083    1034    1044    1077    1086    1101    1099    1079    1058    1058
    1026    1032    1091    1084    1033    1032    1036    1041    1052    1044
    1010    1042    1000    1072    1060    1018    1061    1055    1013    1114
     982     949    1026    1060    1115    1051    1004    1008     986    1028
    1043    1062    1021    1086    1075    1056     994    1042    1076    1092
    1010    1011    1004    1005    1029    1041    1057    1038    1033    1044
    1014    1003    1051    1025    1010    1036    1073    1061    1038    1043
    1055    1046    1025    1008    1037    1044    1026    1022    1053    1048
    1080    1028    1058    1076    1037    1078    1038    1072    1048    1028
    1034    1022    1025    1050    1035    1072    1096    1054    1053    1052
    1036    1047    1053    1062    1043    1073    1050    1064    1027    1058
    1061    1054    1043    1046    1044    1080    1105    1049    1028    1031
    1043    1066    1041    1077    1068    1045    1060    1046    1068    1094
    1066    1035    1051    1066    1071    1046    1023    1024    1075    1087
    1080    1078    1075    1020     978    1030    1057    1075    1068    1028
    1045    1039    1053    1064    1096    1065    1023    1100    1072    1050
    1017    1071    1118    1074    1069    1093    1070    1026    1036    1057
    1060    1080    1073    1034    1064    1075    1059    1109    1088    1044
    1057    1054    1066    1106    1072    1061    1052    1048    1047    1083
    1054    1107    1066    1053    1057    1114    1115    1076    1048    1016
    1068    1141    1071    1119    1122    1123    1134    1057    1127    1185
    1081    1147    1188    1273    1292    1400    1446    1619    1787    1870
    1914    1905    1869    1739    1610    1492    1413    1351    1332    1319
    1350    1398    1435    1448    1443    1515    1504    1376    1326    1304
    1271    1222    1179    1158    1144    1147    1129    1096    1081    1058
    1079    1074    1087    1078    1102    1066    1138    1061    1014    1070
    1092    1119    1070    1051    1117    1133    1106    1096    1075    1132
    1095    1053    1030    1065    1029    1102    1059    1088    1140    1103
    1079    1070    1084    1114    1086    1069    1059    1068    1078    1097
    1096    1092    1099    1159    1166    1183    1253    1308    1354    1400
    1492    1501    1467    1456    1358    1325    1278    1229    1239    1185
    1237    1204    1156    1230    1263    1212    1318    1359    1319    1227
    1141    1132    1168    1144    1110    1069    1036    1117    1041    1108
    1071    1113    1061    1081    1015    1052    1049    1075    1066    1060
    1010    1030    1042    1070    1094    1032    1036    1068    1116    1095
    1074    1061    1050    1038     988    1000    1055    1077    1048    1054
    1056    1073    1078    1104    1082    1128    1092    1026    1027    1087
    1072    1070    1052    1049    1042    1022    1019    1025    1009     992
    1036    1055    1069    1052     981    1078    1040    1050    1054    1031
    1018    1039    1048    1067    1043    1065    1001    1000     980     999
    1045    1079    1049    1026     998    1022    1043    1096    1042    1043
    1069    1049    1025    1031    1038    1006    1027    1044    1056    1010
    1019    1041    1005    1040    1049    1026    1049    1069    1056    1063
    1068    1035     971    1031    1029    1054    1000    1063    1065     983
    1035    1029    1054    1044    1075    1006    1013     995    1029    1054
    1057    1014    1046    1051    1060    1048    1068    1076    1073    1107
    1073    1073    1115    1109    1096    1101    1064    1079    1095    1048
    1092    1065    1007    1035    1070    1064    1044    1059    1069    1034
    1060    1064    1034    1037    1031    1063    1055    1050    1072    1035
    1021    1062    1055    1032    1018    1039    1057    1061     995    1014
    1066    1056    1023    1061    1024     979    1048    1034    1026    1070
    1057    1043    1027    1060    1055    1002    1014    1025    1029    1026
    1050    1069    1048    1026    1024    1032    1067    1047     973     999
    1023     999    1011    1042    1049    1013    1045    1016    1011    1031
    1059    1049    1016     995    1007    1005    1011    1062    1011    1066
    1047    1045    1029     995    1001    1041    1027     984    1037    1017
    1085    1063    1047    1031    1009    1033    1055    1040    1033     971
    1010    1066    1074    1044    1035    1066    1086    1055    1006    1009
    1023    1050    1079    1065    1048    1056    1041    1049    1076    1063
    1059    1078    1106    1084    1020    1023    1047    1025     991    1005
    1051    1014    1082    1006    1038     988    1007    1037    1092    1045
    1094    1060    1024    1041    1093    1046    1130    1129    1129    1101
    1095    1174    1195    1260    1252    1323    1377    1331    1276    1315
    1294    1216    1150    1172    1165    1180    1120    1109    1083    1154
    1182    1143    1205    1213    1177    1190    1216    1209    1189    1153
    1098    1108    1182    1152    1156    1210    1210    1223    1268    1268
    1335    1315    1333    1410    1394    1278    1213    1230    1214    1128
    1269    1219    1135    1133    1163    1132    1101    1096    1115    1083
    1065    1067    1053    1050    1073    1095    1105    1083    1033    1065
    1091                                                                        
