Co 650                                                                          
BANK       1    4941     494   CONST  1600.0     1.7     0.0     0.0         STD
     973     940     972     947     916     892     940     984     918     997
     976     927     938     909     966     957     955     952     965     968
     968     948     956     946     949     959     933     943     981     984
     982     962     942     941     939     941     964     927     911     900
     904     969     952     942    1026     998     931     941     942     965
     983     960     930     932     980     956     895     952     964     963
     957     968     982     982     973    1003     969     991     910     915
     901     942    1004     955     917     972     958     963     958    1006
     961     939     944     959     975     959     961     955     964     965
     993    1004     952     916     933     959     975     965     959     976
     965     950     957     968     940     987     938     939     918    1015
     988     992     962     922     980     928     953     950     930    1035
    1018     949     984     991     954     990    1000    1007     961     999
     953     983     960     909     955     989     978     995    1007    1009
     975     972     966     942     966     964     957     949     971    1008
     983     991     954     951     966     970     985    1025     999     938
     919     906     947     978     989     931     931     966     993     921
     982     939     944     959     990     996     902     912     933     989
     928    1006    1024    1017     928     952     954     995    1021     988
     960     966     966     949     996     984     920     967    1013     996
     986     977     984     980    1015     981     975     991     954     932
     917     979     973     954     980     995     943     983     995    1020
    1045    1018    1023     994     998    1009    1068    1053    1054    1090
    1147    1319    1370    1529    1675    1820    1870    1573    1361    1219
    1169    1090    1023    1030    1017     988     982     982    1022    1012
    1029    1008    1003     988     986     994    1013    1037    1019     993
     989     992     989    1011    1039    1013    1019    1031    1003    1008
    1004     990    1005     997     966     972     940     980     968     991
    1005    1049     962     994     954     967    1009     921     993     957
    1047    1019     966     976    1021     977    1008     972     946     940
     997     972     971     987     999    1009     996     971    1003    1040
    1047    1026    1029    1041     972     976    1007    1021    1005    1002
     999     993     986     977     956     972    1000    1008     990    1011
     994    1005    1022     986    1023    1021     968     981     975    1019
    1014    1020    1029     977    1063    1030    1093    1012    1079    1191
    1172    1219    1341    1402    1636    1992    2364    2765    3199    3099
    2759    2448    2052    1646    1387    1272    1210    1159    1143    1080
    1049    1046    1050    1061    1060    1029    1003    1008    1012     986
     971     980    1052    1034    1002     975    1006    1030     999     987
     982    1025    1053    1025    1012    1019    1050    1025     991     991
     977    1047    1009     997    1030    1018    1070     994    1006     995
    1009    1057    1021     995    1000     978     974    1018     997    1006
    1014     986     997     976    1059    1016     980     991    1053    1017
    1003    1004     978    1017    1054    1074    1067    1022    1014    1042
    1023     979     996     991     998     981    1005     982     991     988
     989    1024    1015    1009    1032    1004     998     959     924     985
     951    1009    1012     981     947    1029    1020    1022     996     987
    1014     955    1039    1028     999    1032    1033     963     944    1018
    1023     991     962    1008    1021    1030    1003    1006    1000    1029
    1016     965     956    1001    1026    1021    1018     994     975     991
     963     968     991    1013    1024     972     988    1015     983    1018
     996     983    1020     986    1061    1005     993    1008    1001     976
     995     947    1041    1005    1006     986    1015     979    1001     987
    1022     994     995     987     974     988    1026    1043    1044    1020
    1011    1028     997    1020    1029     980     993     975     979     991
     996    1007    1010     997     973    1003    1012     985     986     980
     970    1019     994     995    1023    1039    1051    1020     934    1022
     985     998     979    1028     987     999    1065    1058    1087    1057
     978    1034    1029    1016    1026    1058     986    1020     976    1040
    1081     997     989     986    1063    1040    1046     991    1008     989
    1031    1040     996     980    1025    1047    1008    1011    1019    1016
    1008     990    1013    1019     998     996    1032    1044    1000     992
    1016    1048    1071    1026    1059    1008    1006     980     994     991
     995     991     968    1032    1025     991    1075    1023     992     992
    1020    1020     984    1019     978     992    1015     995    1013    1015
     992    1004    1052    1015    1016    1013    1037    1016     999     996
    1043    1050    1030     981    1004    1030    1017    1010    1017     966
     943     966     995    1014    1021    1029    1034    1010    1000    1017
    1009    1019    1069    1012    1029    1022    1031    1007     982    1002
    1042    1034    1033    1021    1056    1068    1049     991    1003    1032
     974     983    1043    1008    1019     987    1033    1056    1006    1031
    1023    1067    1056    1022    1034    1012    1005    1035    1020     992
    1005    1016    1011    1003     989    1032    1055     999    1027    1037
    1024    1068    1071    1054    1064    1037    1017    1055    1099    1115
    1053    1051    1064    1076    1043    1056    1031    1072    1044    1065
     990     968    1056    1037     988    1079    1022    1011     991    1008
    1049    1071    1074    1031    1053    1037    1008    1040    1050    1040
    1065    1055     999     993    1013    1051    1052    1074    1072    1062
    1058    1064    1053    1056    1057    1004     991    1008    1041    1052
    1035    1038    1085    1079    1070    1081    1055    1108    1114    1076
    1048    1045    1025    1069    1048    1027    1007    1113    1100    1104
    1035     996    1027    1076    1088    1042    1029    1072    1078    1067
    1014    1038    1042    1048    1049    1036    1017    1045    1089    1093
    1092    1085    1093    1090    1066    1101    1090    1109    1110    1058
    1094    1165    1124    1068    1063    1051    1062    1071    1083    1105
    1100    1047    1079    1097    1091    1102    1086    1083    1108    1099
    1118    1080     999    1080    1040    1098    1083    1081    1096    1066
    1072    1084    1130    1116    1071    1112    1102    1043    1039    1093
    1095    1064    1034    1063    1101    1095    1044    1058    1069    1077
    1095    1062    1085    1128    1111    1104    1120    1102    1087    1085
    1117    1101    1027    1087    1096    1075    1113    1074    1071    1102
    1127    1144    1103    1065    1137    1119    1138    1111    1046    1106
    1109    1089    1101    1050    1075    1047    1150    1072    1048    1085
    1034    1097    1137    1151    1090    1048    1066    1109    1118    1112
    1073    1111    1098    1114    1167    1101    1126    1108    1067    1077
    1092    1135    1151    1122    1118    1111    1148    1142    1122    1138
    1136    1067    1026    1032    1087    1124    1147    1088    1098    1113
    1173    1141    1149    1105    1110    1112    1127    1158    1139    1203
    1160    1249    1253    1243    1343    1330    1433    1546    1701    2060
    2248    2632    2858    2793    2542    2209    1893    1621    1501    1387
    1374    1333    1261    1235    1234    1194    1180    1171    1172    1141
    1142    1132    1095    1141    1153    1115    1158    1182    1138    1129
    1140    1198    1164    1104    1110    1097    1113    1131    1148    1135
    1159    1155    1161    1100    1085    1191    1183    1104    1175    1170
    1138    1101    1220    1159    1100    1101    1129    1123    1116    1104
    1102    1119    1101    1112    1169    1162    1108    1128    1132    1105
    1093    1072    1119    1099    1080    1067    1077    1120    1151    1158
    1126    1103    1124    1096    1113    1123    1133    1113    1141    1140
    1118    1096    1090    1071    1097    1126    1137    1143    1083    1128
    1126    1089    1108    1118    1135    1115    1090    1102    1142    1123
    1128    1090    1130    1158    1115    1104    1092    1109    1128    1110
    1065    1095    1086    1138    1161    1135    1084    1140    1160    1092
    1055    1118    1111    1082    1085    1089    1114    1108    1106    1126
    1110    1108    1114    1125    1133    1100    1136    1138    1087    1106
    1061    1083    1124    1053    1106    1081    1134    1140    1115    1127
    1138    1100    1071    1143    1153    1127    1151    1163    1120    1102
    1076    1172    1156    1107    1161    1140    1122    1166    1050    1090
    1118    1165    1103    1107    1123    1143    1175    1139    1126    1160
    1153    1217    1231    1201    1206    1262    1309    1285    1314    1426
    1445    1499    1693    1952    2298    2734    3392    4182    4845    5153
    5010    4649    4195    3844    3571    3065    2578    2058    1823    1609
    1483    1423    1385    1248    1239    1258    1209    1175    1198    1176
    1193    1140    1193    1125    1096    1156    1112    1152    1140    1145
    1151    1138    1103    1130    1120    1108    1122    1105    1093    1075
    1075    1066    1077    1098    1095    1118    1102    1095    1124    1144
    1151    1131    1118    1067    1067    1094    1072    1105    1049    1100
    1112    1124    1091    1058    1134    1109    1133    1095    1157    1150
    1106    1101    1119    1055    1105    1081    1102    1097    1091    1089
    1048    1051    1118    1075    1112    1110    1157    1124    1141    1122
    1116    1159    1177    1120    1144    1142    1167    1205    1201    1166
    1184    1311    1439    1632    1926    2250    2402    2355    2145    1842
    1589    1444    1339    1296    1260    1256    1273    1275    1296    1277
    1330    1381    1385    1391    1362    1446    1516    1587    1708    1838
    2100    2341    2743    3347    4145    4835    5602    5910    5725    5109
    4279    3754    3071    2596    2267    2104    1837    1730    1596    1543
    1473    1464    1438    1369    1323    1291    1279    1255    1250    1246
    1236    1229    1210    1210    1244    1216    1225    1285    1270    1176
    1168    1186    1234    1212    1190    1170    1195    1198    1190    1130
    1173    1156    1226    1229    1174    1227    1225    1169    1185    1174
    1212    1196    1177    1228    1200    1181    1155    1128    1150    1198
    1190    1213    1196    1211    1156    1177    1152    1185    1191    1134
    1118    1127    1123    1139    1133    1129    1122    1135    1175    1185
    1162    1167    1144    1147    1155    1170    1167    1167    1188    1194
    1194    1177    1165    1224    1179    1226    1241    1218    1239    1226
    1230    1295    1352    1386    1376    1402    1207    1254    1236    1260
    1194    1135    1213    1214    1122    1118    1186    1162    1154    1167
    1162    1168    1155    1172    1199    1181    1200    1167    1158    1183
    1198    1119    1123    1148    1155    1151    1173    1195    1165    1129
    1101    1149    1131    1140    1178    1179    1152    1128    1137    1142
    1125    1120    1164    1139    1152    1183    1143    1172    1166    1181
    1182    1142    1108    1097    1198    1138    1189    1168    1198    1178
    1177    1168    1125    1147    1120    1157    1142    1141    1135    1143
    1186    1137    1114    1190    1171    1149    1157    1153    1143    1174
    1167    1191    1246    1256    1253    1238    1225    1285    1277    1260
    1279    1272    1350    1485    1549    1794    2210    2927    3826    4381
    4328    3711    3161    2912    3017    2979    2716    2214    1855    1630
    1491    1394    1354    1438    1417    1401    1420    1466    1552    1659
    1714    1877    1988    2191    2453    2665    3013    3621    4427    5483
    6946    8808   10662   12230   12907   12434   11548   10506    9693    9028
    8234    7076    5754    4618    3733    3094    2616    2333    2083    1911
    1755    1642    1556    1527    1528    1388    1300    1317    1357    1300
    1268    1287    1263    1268    1228    1183    1237    1238    1208    1248
    1148    1178    1224    1151    1180    1162    1180    1134    1164    1174
    1165    1136    1172    1149    1142    1148    1107    1139    1149    1144
    1187    1130    1077    1118    1174    1194    1165    1138    1174    1218
    1187    1201    1230    1201    1207    1211    1198    1211    1228    1239
    1250    1290    1288    1383    1437    1618    1900    2356    2751    3144
    3402    3165    2756    2256    1919    1799    1570    1426    1412    1391
    1367    1242    1225    1216    1233    1269    1254    1238    1211    1233
    1200    1238    1298    1300    1240    1309    1372    1452    1560    1657
    1795    1947    1973    1921    1832    1724    1690    1669    1633    1577
    1476    1370    1257    1218    1233    1235    1211    1172    1174    1184
    1161    1144    1204    1195    1151    1183    1195    1122    1105    1150
    1173    1133    1137    1194    1135    1161    1136    1072    1148    1130
    1171    1127    1183    1166    1133    1121    1095    1113    1108    1154
    1116    1142    1135    1158    1111    1126    1143    1124    1148    1096
    1101    1152    1121    1094    1140    1183    1181    1131    1106    1114
    1120    1110    1141    1106    1094    1124    1121    1131    1121    1149
    1123    1147    1080    1145    1122    1147    1137    1108    1166    1097
    1124    1079    1105    1105    1146    1129    1137    1144    1123    1162
    1131    1130    1166    1109    1138    1099    1135    1234    1180    1132
    1160    1164    1166    1173    1155    1136    1161    1214    1224    1237
    1248    1329    1378    1422    1504    1554    1701    1844    1949    2123
    2252    2204    2144    2066    1914    1804    1637    1544    1485    1391
    1352    1311    1284    1225    1220    1207    1172    1175    1145    1146
    1049    1180    1089    1189    1156    1135    1150    1099    1130    1073
    1140    1150    1134    1162    1143    1106    1148    1161    1146    1133
    1115    1111    1114    1118    1142    1155    1103    1055    1057    1103
    1101    1104    1101    1099    1135    1134    1150    1139    1142    1077
    1079    1098    1136    1119    1115    1118    1132    1089    1119    1087
    1130    1138    1128    1131    1127    1085    1131    1121    1107    1127
    1093    1039    1141    1071    1107    1059    1105    1109    1161    1075
    1124    1105    1099    1105    1124    1147    1070    1067    1076    1099
    1083    1056    1101    1127    1081    1080    1091    1087    1121    1165
    1170    1182    1182    1177    1280    1256    1240    1251    1292    1315
    1391    1559    1884    2309    3020    3897    4735    5111    4914    4266
    3487    3199    3208    3274    3234    2886    2334    1788    1648    1463
    1364    1314    1281    1190    1129    1179    1125    1165    1151    1120
    1118    1149    1101    1104    1102    1095    1090    1107    1113    1083
    1075    1116    1100    1074    1096    1141    1116    1096    1095    1149
    1182    1138    1106    1091    1096    1144    1119    1090    1097    1098
    1051    1048    1121    1126    1127    1076    1046    1061    1082    1152
    1120    1134    1093    1051    1061    1089    1113    1069    1105    1132
    1030    1058    1129    1096    1090    1080    1122    1080    1061    1069
    1119    1083    1102    1087    1103    1087    1089    1080    1067    1078
    1091    1103    1110    1116    1094    1125    1127    1088    1144    1130
    1097    1117    1081    1044    1083    1048    1043    1128    1127    1092
    1102    1076    1116    1128    1127    1093    1070    1112    1061    1083
    1125    1090    1114    1082    1106    1142    1096    1077    1033    1077
    1103    1087    1100    1160    1148    1094    1122    1141    1098    1106
    1138    1128    1087    1100    1083    1119    1136    1152    1091    1112
    1133    1122    1099    1116    1147    1166    1189    1211    1162    1198
    1221    1255    1285    1253    1294    1339    1412    1443    1451    1570
    1662    1762    2030    2274    2515    2919    3131    3410    3326    3331
    3190    3046    2890    2797    2757    2627    2487    2276    2019    1880
    1682    1623    1497    1427    1357    1325    1293    1239    1258    1233
    1151    1214    1192    1142    1161    1196    1178    1157    1168    1150
    1123    1140    1140    1153    1161    1183    1181    1127    1101    1162
    1158    1153    1155    1141    1100    1133    1149    1169    1154    1092
    1148    1194    1131    1118    1125    1140    1108    1121    1083    1113
    1190    1082    1118    1193    1104    1134    1149    1159    1181    1108
    1099    1150    1109    1081    1102    1111    1120    1092    1094    1177
    1181    1172    1168    1113    1135    1103    1101    1114    1117    1118
    1112    1130    1115    1118    1115    1101    1122    1121    1145    1135
    1162    1116    1159    1104    1087    1099    1128    1122    1176    1154
    1106    1084    1117    1152    1168    1119    1104    1108    1084    1103
    1074    1110    1166    1145    1113    1122    1098    1097    1135    1110
    1082    1093    1140    1159    1122    1117    1040    1078    1097    1120
    1155    1164    1140    1122    1128    1120    1107    1107    1112    1135
    1123    1140    1153    1148    1123    1116    1146    1179    1142    1115
    1098    1114    1095    1120    1125    1103    1085    1124    1106    1131
    1143    1075    1114    1131    1134    1102    1062    1175    1074    1144
    1112    1073    1128    1121    1075    1116    1097    1143    1094    1067
    1055    1087    1134    1144    1129    1122    1178    1160    1088    1101
    1135    1129    1125    1107    1096    1119    1135    1133    1122    1118
    1127    1111    1112    1109    1124    1106    1086    1120    1124    1126
    1064    1116    1128    1116    1060    1079    1118    1095    1096    1132
    1089    1053    1027    1104    1084    1076    1119    1088    1144    1128
    1134    1106    1078    1118    1080    1078    1084    1100    1078    1080
    1098    1091    1100    1092    1108    1149    1107    1061    1049    1092
    1121    1126    1095    1116    1118    1084    1073    1069    1088    1104
    1061    1067    1060    1030    1091    1127    1095    1152    1098    1071
    1113    1102    1089    1139    1068    1110    1077    1068    1136    1093
    1127    1056    1095    1094    1080    1159    1080    1144    1111    1144
    1115    1082    1080    1045    1074    1078    1071    1100    1115    1080
    1111    1111    1094    1084    1092    1086    1070    1082    1099    1119
    1101    1076    1055    1101    1089    1034    1072    1101    1102    1098
    1059    1054    1121    1127    1109    1074    1150    1100    1090    1093
    1062    1106    1118    1090    1111    1089    1082    1086    1156    1081
    1077    1072    1128    1132    1102    1100    1166    1211    1131    1186
    1219    1268    1266    1298    1340    1304    1359    1384    1341    1232
    1241    1267    1202    1130    1118    1132    1132    1118    1130    1119
    1113    1099    1125    1101    1090    1103    1103    1158    1151    1066
    1062    1078    1094    1133    1094    1046    1065    1121    1124    1093
    1143    1134    1083    1080    1060    1142    1077    1123    1051    1127
    1046    1091    1095    1085    1142    1090    1084    1069    1115    1092
    1105    1085    1097    1090    1084    1117    1093    1102    1091    1109
    1138    1130    1122    1112    1114    1110    1078    1065    1077    1096
    1068    1069    1066    1056    1128    1094    1105    1101    1125    1103
    1073    1114    1098    1069    1057    1048    1083    1073    1073    1049
    1039    1089    1038    1037    1054    1089    1093    1115    1098    1090
    1100    1120    1050    1047    1062    1070    1100    1055    1101    1059
    1062    1060    1104    1113    1121    1119    1077    1070    1092    1078
    1037    1065    1062    1040    1061    1066    1082    1107    1081    1078
    1078    1110    1094    1079    1094    1090    1097    1124    1067    1046
    1110    1123    1100    1073    1107    1143    1136    1107    1080    1087
    1047    1131    1144    1050    1126    1055    1101    1086    1126    1107
    1056    1091    1057    1026    1061    1079    1123    1102    1086    1069
    1079    1104    1074    1110    1104    1073    1114    1110    1064    1087
    1100    1081    1081    1087    1088    1079    1097    1075    1087    1113
    1125    1078    1101    1166    1111    1083    1166    1137    1142    1127
    1148    1144    1136    1103    1171    1146    1136    1163    1170    1138
    1141    1208    1214    1224    1270    1210    1313    1233    1406    1482
    1620    1676    1736    1805    1946    2066    2143    2142    2060    1971
    1845    1728    1689    1611    1561    1460    1426    1386    1381    1311
    1265    1253    1266    1255    1180    1156    1233    1228    1156    1176
    1215    1177    1125    1139    1124    1134    1134    1169    1141    1135
    1112    1131    1110    1085    1078    1139    1114    1100    1142    1113
    1165    1076    1109    1144    1093    1153    1148    1143    1079    1102
    1110    1120    1112    1116    1146    1077    1059    1116    1139    1134
    1139    1134    1112    1103    1118    1095    1093    1156    1133    1111
    1108    1110    1101    1117    1076    1060    1082    1126    1164    1142
    1133    1051    1108    1134    1084    1141    1094    1085    1115    1172
    1096    1170    1084    1125    1122    1137    1058    1117    1168    1149
    1206    1151    1082    1135    1137    1158    1157    1162    1228    1276
    1404    1553    1660    1827    1930    1919    1792    1616    1520    1427
    1394    1313    1243    1262    1245    1196    1182    1205    1176    1124
    1096    1132    1147    1185    1144    1123    1166    1111    1108    1109
    1157    1142    1145    1185    1129    1159    1159    1167    1174    1192
    1188    1147    1174    1187    1229    1299    1285    1378    1363    1373
    1456    1623    1733    1789    1791    1741    1643    1619    1549    1509
    1473    1487    1498    1452    1422    1405    1325    1290    1266    1235
    1213    1200    1177    1139    1140    1168    1156    1173    1141    1129
    1131    1112    1123    1079    1058    1123    1113    1122    1130    1086
    1081    1106    1112    1081    1095    1088    1076    1107    1106    1081
    1171     994    1123    1152    1065    1140    1149    1080    1109    1042
    1081    1118    1123    1140    1129    1110    1101    1122    1097    1123
    1092    1079    1060    1077    1101    1070    1058    1047    1087    1083
    1040    1104    1107    1079    1070    1123    1157    1112    1059    1037
    1095    1157    1115    1108    1109    1080    1049    1105    1082    1097
    1106    1163    1103    1148    1136    1176    1099    1113    1036    1077
    1040    1132    1134    1113    1054    1101    1109    1095    1107    1062
    1077    1080    1056    1073    1109    1100    1071    1080    1094    1113
    1098    1107    1080    1041    1082    1098    1094    1115    1135    1113
    1068    1079    1094    1099    1110    1103    1091    1059    1063    1094
    1089    1054    1090    1144    1101    1126    1119    1164    1125    1120
    1157    1111    1108    1140    1149    1117    1209    1105    1151    1126
    1122    1157    1063    1152    1153    1123    1157    1139    1164    1082
    1133    1127    1146    1146    1150    1156    1162    1149    1164    1154
    1189    1228    1263    1317    1357    1369    1401    1513    1583    1645
    1817    1978    2078    2162    2198    2269    2190    2187    2058    1980
    1860    1766    1681    1607    1561    1432    1417    1389    1325    1323
    1290    1230    1250    1261    1238    1280    1206    1236    1174    1123
    1202    1174    1141    1220    1196    1172    1169    1185    1186    1176
    1228    1182    1207    1205    1165    1221    1291    1330    1343    1312
    1331    1363    1400    1423    1401    1431    1497    1549    1648    1778
    1916    2061    2192    2371    2623    2854    3207    3524    3615    3629
    3507    3418    3172    2982    2845    2771    2771    2672    2783    2684
    2567    2343    2094    2022    1863    1804    1704    1575    1432    1380
    1390    1311    1300    1286    1283    1193    1277    1289    1246    1214
    1182    1216    1210    1187    1187    1179    1147    1149    1151    1149
    1174    1174    1187    1178    1132    1128    1138    1145    1132    1154
    1154    1105    1113    1120    1157    1171    1197    1164    1154    1126
    1134    1147    1136    1082    1114    1142    1113    1103    1181    1154
    1134    1076    1073    1121    1154    1085    1125    1085    1098    1062
    1062    1093    1055    1088    1112    1121    1069    1121    1088    1088
    1119    1137    1095    1137    1147    1113    1108    1117    1136    1134
    1100    1101    1096    1087    1151    1136    1105    1119    1122    1126
    1144    1113    1124    1127    1143    1141    1149    1172    1117    1166
    1141    1141    1150    1168    1172    1182    1192    1252    1335    1426
    1678    1907    2243    2626    2812    2901    2666    2288    1982    1778
    1609    1683    1754    1945    2079    2061    1924    1754    1601    1513
    1427    1310    1232    1238    1242    1181    1163    1158    1155    1165
    1155    1131    1105    1105    1117    1125    1101    1107    1170    1127
    1108    1173    1157    1049    1075    1109    1083    1122    1098    1084
    1054    1096    1045    1135    1104    1125    1113    1138    1087    1103
    1056    1114    1103    1127    1105    1059    1044    1052    1063    1102
    1135    1078    1103    1105    1055    1045    1143    1136    1123    1120
    1097    1088    1106    1112    1100    1086    1108    1101    1080    1073
    1066    1051    1087    1115    1115    1082    1108    1107    1083    1081
    1150    1122    1105    1132    1057    1075    1063    1118    1117    1037
    1069    1093    1067    1086    1120    1116    1048    1092    1063    1074
    1150    1184    1138    1107    1056    1062    1040    1108    1129    1118
    1115    1083    1043    1090    1066    1121    1078    1067    1083    1092
    1092    1048    1076    1128    1102    1093    1106    1088    1064    1065
    1086    1091    1066    1035    1072    1114    1084    1060    1052    1076
    1063    1083    1077    1130    1150    1051    1104    1079    1047    1087
    1114    1093    1080    1094    1194    1060    1066    1143    1137    1087
    1060    1102    1078    1063    1072    1083    1116    1095    1103    1078
    1042    1068    1111    1013    1042    1092    1139    1125    1099    1093
    1128    1128    1064    1086    1108    1088    1069    1070    1087    1086
    1096    1098    1089    1090    1080    1075    1084    1065    1077    1109
    1101    1100    1061    1104    1051    1002    1093    1042    1075    1097
    1096    1119    1106    1109    1148    1130    1142    1071    1042    1113
    1099    1111    1065    1082    1116    1062    1054    1065    1104    1080
    1134    1137    1100    1100    1112    1081    1092    1097    1081    1057
    1086    1111    1096    1098    1118    1177    1173    1142    1163    1156
    1155    1203    1209    1207    1230    1283    1257    1254    1340    1363
    1342    1325    1397    1486    1506    1617    1707    1863    2138    2197
    2604    2882    3254    3389    3702    3803    3684    3572    3368    3041
    2921    2783    2734    2659    2700    2745    2677    2613    2468    2279
    2220    2021    1875    1784    1738    1710    1626    1529    1462    1407
    1367    1340    1259    1207    1223    1204    1184    1163    1161    1140
    1124    1156    1195    1111    1145    1170    1105    1084    1088    1115
    1108    1093    1120    1134    1092    1066    1047    1108    1125    1122
    1199    1080    1062    1096    1051    1153    1105    1100    1133    1129
    1152    1126    1150    1143    1136    1154    1187    1120    1123    1164
    1146    1137    1143    1144    1136    1139    1121    1111    1091    1111
    1119    1126    1132    1062    1068    1096    1074    1039    1073    1066
    1114    1125    1098    1054    1053    1106    1109    1039    1066    1098
    1098    1062    1056    1072    1035    1095    1061    1131    1081    1074
    1098    1111    1097    1112     998    1080    1076    1016    1047    1076
    1098    1079    1101    1102    1077    1046    1051    1073    1074    1050
    1075    1109    1075    1068    1075    1074    1097    1104    1103    1103
    1030    1054    1059    1090    1088    1053    1063    1098    1078    1121
    1076    1060    1069    1079    1054    1074    1089    1031    1034    1072
    1096    1071    1057    1134    1091    1071    1083    1043    1059    1081
    1039    1085    1038    1099    1061    1056    1050    1063    1050    1022
    1030    1075    1100    1085    1135    1127    1099    1108    1094    1076
    1120    1113    1060    1044    1044    1069    1076    1077    1056    1092
    1125    1082    1040    1081    1089    1098    1087    1016    1046    1056
    1127    1134    1089    1036    1061    1090    1067    1039    1111    1082
    1108    1075    1043    1111    1040    1137    1047    1054    1092    1145
    1100    1079    1108    1104    1094    1124    1115    1144    1161    1157
    1080    1129    1192    1190    1243    1216    1219    1168    1146    1168
    1187    1220    1225    1217    1208    1224    1271    1318    1309    1347
    1325    1329    1271    1278    1340    1250    1197    1254    1324    1276
    1275    1247    1241    1170    1217    1200    1146    1157    1185    1143
    1145    1164    1108    1111    1093    1101    1149    1112    1089    1039
    1075    1123    1089    1110    1094    1083    1118    1102    1074    1083
    1089    1061    1078    1106    1106    1106    1117    1092    1061    1054
    1070    1115    1121    1066    1082    1077    1065    1075    1082    1126
    1116    1065    1062    1057    1069    1077    1060    1128    1103    1094
    1062    1089    1097    1066    1109    1105    1135    1152    1093    1145
    1164    1140    1160    1138    1127    1153    1103    1090    1076    1114
    1058    1066    1084    1051    1098    1125    1115    1129    1105    1096
    1094    1068    1029    1022    1035    1084    1114    1102    1119    1114
    1071    1054    1063    1085    1055    1097    1099    1079    1122    1095
    1080    1088    1095    1067    1105    1111    1116    1098    1050    1056
    1099    1044    1073    1069    1035    1046    1048    1032    1100    1119
    1088    1085    1067    1054    1078    1095    1077    1030    1086    1133
    1116    1117    1079    1056    1089    1107    1073    1094    1067    1050
    1059    1084    1113    1078    1050    1084    1110    1104    1100    1045
    1070    1109    1092    1055    1085    1073    1044    1044    1046    1018
    1028    1096    1100    1070    1117    1078    1089    1076    1084    1060
    1087    1118    1076    1084    1119    1118    1049    1034    1073    1048
    1052    1112    1125    1162    1113    1048    1057    1059    1056    1056
    1044    1055    1047    1030    1073    1064    1069    1081    1107    1066
    1045    1067    1106    1115    1068    1065    1037    1009    1036    1046
    1048    1083    1097    1086    1076    1121    1079    1034    1075    1078
    1076    1095    1039    1089    1087    1065    1080    1054    1125    1052
    1081    1028    1023    1090    1053    1045    1062    1064    1052    1068
    1083    1082    1079    1104    1055    1048    1076    1102    1078    1091
    1098    1056    1086    1085    1081    1082    1083    1081    1039    1050
    1101    1067    1052    1097    1084    1083    1077    1085    1155    1136
    1103    1089    1110    1110    1130    1089    1101    1069    1054    1090
    1032    1008    1061    1015    1085    1062    1040    1062    1054    1024
    1058    1063    1045    1096    1102    1095    1060    1022    1038    1071
    1112    1106    1145    1125    1108    1117    1118    1110    1137    1162
    1166    1235    1306    1415    1505    1598    1633    1573    1558    1509
    1449    1390    1365    1343    1273    1342    1355    1335    1342    1395
    1452    1348    1355    1307    1293    1261    1176    1188    1157    1148
    1079    1136    1128    1113    1068    1111    1097    1086    1133    1051
    1086    1111    1072    1082    1127    1090    1062    1144    1145    1137
    1120    1148    1115    1104    1115    1107    1133    1140    1183    1174
    1202    1206    1215    1256    1246    1216    1226    1214    1195    1159
    1184    1163    1152    1179    1163    1161    1188    1208    1129    1143
    1154    1105    1176    1141    1150    1092    1102    1077    1152    1046
    1112    1079    1141    1097    1142    1053    1082    1057    1104    1093
    1129    1071    1138    1105    1053    1127    1086    1043    1093    1083
    1076    1052    1050    1070    1090    1075    1070    1087    1054    1048
    1053    1069    1079    1063    1053    1060    1071    1102    1091    1077
    1048    1077    1040    1032    1084    1076    1109    1041    1059    1105
    1068    1086    1068    1087    1055    1004    1060     987    1066    1038
    1090    1059    1083    1067     996    1017    1064    1097    1057    1087
    1113    1140    1115    1048    1025    1109    1098    1140    1112    1053
    1110    1092    1058    1038    1039    1027    1052    1063    1061    1074
    1082    1076    1117    1085    1041    1071    1066    1089    1063    1052
    1066    1040    1080    1084    1116    1094    1058    1053    1018    1115
    1096    1118    1071    1060    1073    1085    1074    1137    1082    1175
    1158    1102    1081    1093    1143    1108    1116    1091    1098    1090
    1109    1156    1119    1093    1052    1063    1107    1084    1080    1091
    1101    1079    1099    1115    1106    1089    1085    1093    1124    1101
    1085    1060    1065    1118    1114    1085    1073    1082    1123    1134
    1075    1068    1068    1084    1042    1061    1145    1094    1109    1053
    1079    1103    1037    1098    1081    1153    1139    1075    1101    1117
    1108    1119    1148    1104    1073    1102    1057    1113    1086    1078
    1099    1135    1125    1154    1128    1138    1147    1162    1146    1158
    1202    1214    1231    1268    1382    1448    1459    1501    1578    1632
    1589    1560    1475    1468    1491    1519    1550    1643    1642    1671
    1687    1747    1747    1731    1743    1614    1504    1524    1436    1433
    1398    1442    1322    1438    1445    1379    1329    1341    1303    1282
    1232    1225    1194    1218    1285    1214    1211    1135    1110    1144
    1153    1140    1143    1113    1139    1136    1140    1112    1066    1103
    1130    1123    1130    1123    1109    1111    1112    1104    1110    1172
    1132    1138    1182    1127    1113    1133    1124    1080    1094    1129
    1093    1131    1107    1137    1107    1113    1114    1125    1130    1197
    1195    1119    1217    1153    1192    1200    1222    1204    1318    1333
    1325    1344    1353    1259    1305    1270    1279    1244    1197    1217
    1250    1303    1276    1251    1272    1233    1257    1298    1256    1193
    1183    1195    1167    1163    1170    1140    1082    1067    1139    1131
    1113    1084    1108    1098    1164    1091    1090    1112    1148    1112
    1091    1100    1096    1082    1057    1142    1124    1133    1100    1085
    1060    1031    1091    1055    1098    1030    1074    1072    1004    1050
    1081    1099    1061    1055    1095    1003    1032    1094    1075    1095
    1079    1059    1071    1078    1074    1047    1069    1099    1093    1087
    1075    1079    1061    1043    1051    1069    1092    1053    1026    1042
    1075    1070    1089    1089    1065    1104    1061    1030    1071    1095
    1047    1053    1129    1064    1052    1052    1045    1057    1045    1100
    1043    1065    1049    1085    1105    1026    1054    1038    1057    1021
    1028    1021    1071    1066    1067    1078    1082    1069    1060    1033
    1046    1046    1021    1025    1027    1038    1044    1042    1060    1082
    1123    1089    1092    1085    1058    1057    1092    1041    1085    1068
    1035    1073    1048    1065    1133    1134    1135    1132    1064    1097
    1176    1061    1104    1127    1042    1128    1084    1127    1132    1081
    1054    1070    1049    1081    1100    1110    1093    1071    1083    1042
    1078    1042    1026    1089    1096    1113    1079    1070    1068    1076
    1055    1076    1049    1036    1050    1029    1028    1063    1043    1005
    1050    1108    1081    1055    1034    1044    1062    1027    1045    1086
    1078    1060    1069    1084    1100    1089    1042     994    1039    1105
    1079    1055    1032    1026    1009    1069    1069    1078    1097    1086
    1055    1088    1116    1076    1105    1068    1093    1079    1092    1138
    1107    1104    1119    1077    1085    1054    1077    1075    1079    1081
    1055    1069    1091    1073    1059    1066    1047    1076    1045    1056
    1105    1076    1034    1070    1096    1059    1089    1065    1092    1051
    1055    1041    1076    1102    1091    1071    1061    1135    1112    1060
    1001    1026    1100    1069    1058    1137    1076    1068    1044    1060
    1113    1088    1109    1071    1116    1084    1069    1067    1075    1068
    1064    1090    1058    1055    1072    1048    1057    1080    1059    1056
    1101    1110    1098    1077    1084    1114    1130    1115    1087    1098
    1160    1125    1147    1124    1147    1154    1181    1242    1245    1257
    1270    1272    1292    1209    1219    1246    1213    1161    1183    1214
    1196    1094    1199    1158    1180    1252    1249    1228    1182    1125
    1147    1149    1179    1196    1168    1124    1186    1164    1192    1217
    1201                                                                        
