Co                                                                              
BANK       1    4941     494   CONST  1600.0     1.7     0.0     0.0         STD
    1163    1092    1079    1107    1103    1095    1046    1102    1070    1079
    1085    1076    1114    1129    1105    1098    1070    1085    1082    1078
    1097    1115    1071    1033    1092    1116    1086    1082    1083    1098
    1093    1070    1087    1114    1089    1060    1074    1102    1095    1102
    1116    1087    1116    1111    1074    1064    1082    1144    1097    1056
    1051    1119    1119    1123    1102    1122    1123    1123    1113    1105
    1114    1121    1095    1135    1125    1103    1047    1066    1070    1058
    1067    1098    1111    1120    1097    1052    1069    1106    1170    1115
    1099    1139    1092    1088    1090    1079    1052    1052    1131    1154
    1117    1098    1081    1043    1067    1087    1061    1074    1093    1097
    1148    1099    1080    1129    1106    1076    1112    1105    1103    1062
    1081    1109    1151    1060    1058    1114    1035    1041    1127    1137
    1058    1130    1092    1105    1101    1080    1050    1062    1089    1077
    1091    1113    1142    1107    1113    1093    1117    1096    1090    1126
    1077    1069    1133    1141    1077    1070    1113    1101    1065    1061
    1080    1116    1111    1076    1076    1098    1093    1112    1137    1125
    1063    1077    1087    1116    1097    1135    1110    1119    1123    1118
    1138    1086    1071    1158    1168    1136    1124    1169    1078    1102
    1161    1121    1136    1136    1020    1059    1113    1175    1122    1102
    1106    1123    1069    1119    1109    1078    1120    1119    1106    1131
    1110    1108    1149    1134    1090    1107    1160    1143    1153    1125
    1090    1058    1109    1075    1082    1093    1140    1115    1117    1135
    1133    1105    1114    1159    1197    1172    1211    1244    1267    1299
    1405    1482    1577    1784    1747    1588    1565    1490    1410    1289
    1238    1171    1143    1144    1161    1146    1150    1158    1189    1138
    1119    1123    1106    1111    1123    1127    1115    1166    1159    1148
    1174    1197    1201    1169    1133    1168    1160    1120    1096    1135
    1154    1169    1120    1120    1123    1109    1184    1127    1103    1182
    1143    1133    1160    1187    1127    1142    1136    1086    1119    1130
    1168    1065    1195    1154    1092    1153    1142    1168    1070    1141
    1193    1194    1141    1131    1138    1173    1142    1139    1174    1149
    1134    1173    1191    1136    1100    1108    1125    1130    1180    1182
    1119    1144    1163    1168    1152    1129    1129    1139    1148    1177
    1145    1150    1211    1156    1159    1178    1151    1219    1165    1239
    1211    1179    1190    1192    1268    1187    1178    1287    1276    1349
    1336    1429    1499    1683    1849    2120    2353    2488    2633    2553
    2380    2112    1902    1737    1561    1392    1336    1296    1243    1227
    1236    1219    1223    1219    1185    1181    1194    1214    1226    1195
    1166    1191    1150    1111    1117    1158    1201    1199    1250    1211
    1195    1200    1227    1191    1159    1143    1095    1175    1138    1160
    1152    1218    1147    1152    1109    1160    1175    1147    1185    1173
    1207    1187    1123    1158    1194    1173    1195    1182    1144    1194
    1136    1106    1216    1181    1160    1177    1205    1186    1238    1195
    1174    1188    1210    1191    1175    1163    1153    1225    1175    1155
    1159    1165    1154    1142    1140    1156    1163    1121    1148    1146
    1122    1159    1162    1163    1160    1156    1171    1134    1203    1140
    1116    1124    1174    1152    1169    1191    1123    1152    1166    1163
    1192    1227    1168    1144    1163    1182    1136    1203    1160    1125
    1189    1185    1135    1134    1124    1165    1179    1214    1227    1197
    1149    1122    1151    1147    1139    1135    1159    1157    1154    1185
    1190    1173    1181    1214    1163    1156    1162    1148    1140    1172
    1171    1160    1173    1201    1171    1186    1184    1111    1162    1235
    1159    1181    1141    1142    1143    1173    1140    1152    1162    1140
    1194    1168    1143    1171    1179    1133    1151    1204    1173    1169
    1159    1158    1197    1200    1180    1179    1157    1146    1166    1189
    1231    1201    1143    1134    1147    1129    1107    1133    1172    1178
    1177    1179    1120    1156    1144    1190    1196    1187    1096    1157
    1131    1124    1165    1222    1158    1206    1198    1123    1177    1161
    1165    1185    1125    1152    1150    1190    1151    1212    1209    1143
    1095    1122    1158    1152    1110    1159    1136    1147    1133    1140
    1158    1163    1172    1165    1130    1147    1165    1176    1164    1162
    1160    1155    1173    1183    1141    1124    1148    1179    1144    1151
    1146    1166    1173    1116    1098    1118    1134    1154    1155    1213
    1190    1164    1178    1140    1119    1132    1102    1154    1106    1224
    1097    1230    1244    1168    1153    1153    1149    1174    1167    1106
    1127    1181    1183    1130    1127    1144    1158    1129    1150    1146
    1130    1125    1134    1148    1185    1182    1147    1159    1131    1148
    1126    1120    1173    1191    1175    1178    1161    1186    1195    1176
    1167    1133    1142    1206    1101    1148    1126    1094    1141    1185
    1094    1113    1141    1173    1146    1190    1134    1147    1079    1132
    1129    1109    1131    1123    1200    1137    1112    1157    1170    1099
    1134    1135    1146    1172    1140    1099    1103    1122    1140    1100
    1117    1139    1106    1142    1143    1150    1146    1124    1143    1118
    1147    1184    1143    1128    1124    1099    1119    1180    1147    1159
    1156    1094    1141    1095    1138    1090    1109    1086    1098    1124
    1123    1126    1188    1099    1154    1146    1104    1135    1155    1158
    1197    1138    1136    1136    1172    1152    1147    1179    1143    1188
    1155    1123    1129    1105    1133    1185    1157    1166    1168    1154
    1134    1156    1147    1150    1163    1137    1116    1100    1110    1130
    1163    1146    1186    1190    1154    1151    1164    1125    1162    1108
    1161    1157    1165    1149    1103    1195    1164    1175    1164    1158
    1214    1167    1115    1173    1165    1165    1150    1159    1098    1194
    1128    1128    1117    1112    1102    1156    1165    1162    1148    1135
    1144    1133    1148    1143    1174    1161    1178    1168    1183    1213
    1204    1201    1209    1173    1132    1163    1188    1165    1142    1161
    1202    1220    1153    1174    1193    1124    1135    1145    1139    1129
    1157    1131    1181    1145    1158    1196    1198    1167    1164    1126
    1137    1186    1139    1156    1130    1136    1115    1136    1124    1117
    1174    1126    1137    1118    1185    1186    1165    1153    1198    1177
    1133    1123    1111    1123    1133    1134    1140    1181    1200    1146
    1096    1137    1175    1164    1162    1182    1176    1152    1150    1165
    1165    1134    1145    1125    1156    1140    1138    1220    1202    1159
    1170    1187    1126    1163    1180    1190    1211    1117    1147    1100
    1147    1187    1142    1170    1177    1126    1128    1185    1199    1165
    1167    1117    1159    1128    1168    1141    1170    1183    1183    1188
    1154    1166    1167    1163    1130    1142    1166    1137    1139    1107
    1103    1135    1159    1118    1141    1136    1131    1149    1167    1130
    1178    1209    1176    1166    1186    1163    1205    1194    1177    1260
    1213    1225    1295    1309    1269    1243    1311    1322    1423    1472
    1645    1703    1911    2053    2226    2228    2331    2171    2000    1873
    1702    1591    1494    1402    1373    1399    1310    1248    1269    1262
    1211    1216    1220    1221    1208    1172    1164    1188    1212    1204
    1215    1160    1157    1203    1248    1158    1169    1203    1194    1207
    1172    1141    1148    1242    1184    1213    1206    1141    1164    1190
    1158    1112    1249    1144    1202    1138    1163    1244    1218    1143
    1139    1192    1113    1123    1101    1125    1187    1169    1168    1160
    1154    1156    1135    1146    1154    1157    1160    1149    1175    1152
    1130    1148    1189    1178    1147    1140    1169    1209    1177    1157
    1147    1157    1178    1140    1166    1161    1200    1197    1176    1114
    1178    1190    1183    1242    1218    1153    1162    1138    1172    1162
    1114    1117    1158    1149    1157    1141    1164    1158    1148    1096
    1159    1167    1060    1147    1149    1131    1138    1152    1157    1132
    1135    1158    1207    1186    1127    1142    1172    1142    1136    1167
    1190    1161    1168    1155    1150    1167    1184    1135    1137    1115
    1098    1152    1140    1143    1092    1145    1186    1170    1167    1145
    1176    1174    1162    1160    1193    1181    1079    1190    1170    1203
    1177    1181    1203    1121    1106    1098    1069    1201    1199    1131
    1177    1191    1193    1146    1139    1219    1186    1190    1162    1184
    1177    1208    1243    1205    1213    1200    1182    1213    1279    1302
    1303    1377    1443    1531    1567    1691    1844    1947    2217    2497
    2864    3234    3534    3856    3738    3664    3469    3116    2991    2744
    2325    2189    1982    1700    1623    1466    1443    1361    1280    1272
    1273    1178    1187    1183    1209    1221    1182    1206    1165    1149
    1144    1170    1142    1180    1094    1163    1175    1129    1154    1182
    1159    1145    1134    1125    1122    1170    1169    1121    1081    1072
    1138    1153    1146    1146    1098    1159    1118    1117    1160    1148
    1083    1157    1185    1154    1157    1132    1136    1199    1149    1083
    1145    1171    1113    1067    1083    1157    1100    1155    1082    1181
    1150    1085    1116    1131    1101    1138    1146    1184    1195    1140
    1124    1084    1099    1140    1121    1184    1164    1139    1190    1158
    1139    1193    1188    1215    1204    1210    1243    1270    1275    1297
    1353    1372    1409    1550    1692    1847    2017    2271    2422    2617
    2713    2572    2476    2216    1978    1890    1731    1666    1566    1602
    1594    1687    1781    1895    1969    2155    2484    2775    2980    3303
    3660    3957    4037    3959    3787    3486    3128    2788    2509    2303
    2116    1931    1774    1658    1583    1545    1493    1454    1387    1334
    1329    1302    1306    1267    1233    1258    1275    1285    1307    1291
    1288    1293    1226    1217    1252    1222    1258    1247    1221    1207
    1187    1243    1234    1212    1239    1158    1257    1241    1224    1179
    1178    1220    1208    1175    1186    1200    1227    1197    1205    1162
    1211    1227    1214    1186    1227    1235    1239    1227    1170    1123
    1140    1197    1196    1199    1189    1157    1215    1200    1148    1147
    1185    1169    1163    1187    1197    1195    1187    1168    1118    1091
    1156    1150    1192    1216    1167    1169    1176    1203    1193    1190
    1151    1133    1234    1313    1260    1279    1323    1259    1307    1267
    1248    1305    1256    1264    1278    1221    1202    1258    1196    1174
    1194    1177    1130    1212    1185    1118    1162    1140    1183    1227
    1181    1160    1173    1200    1187    1175    1154    1168    1179    1173
    1192    1179    1182    1176    1164    1161    1126    1133    1142    1179
    1141    1094    1169    1166    1171    1148    1118    1167    1176    1179
    1135    1179    1115    1163    1157    1173    1165    1248    1190    1218
    1172    1199    1194    1195    1225    1201    1182    1216    1204    1151
    1222    1155    1123    1136    1177    1136    1118    1156    1175    1222
    1202    1197    1218    1193    1192    1202    1200    1150    1150    1201
    1242    1201    1215    1248    1229    1282    1345    1375    1382    1379
    1389    1457    1464    1608    1642    1719    1810    1912    2167    2416
    2726    3095    3606    4107    4511    4790    4861    4784    4706    4284
    4015    3713    3419    3144    2884    2690    2461    2408    2488    2574
    2750    2978    3340    3646    4245    4803    5465    6200    6930    7607
    7912    7959    7926    7583    7148    6744    6153    5476    4922    4363
    3823    3330    2877    2597    2348    2127    1961    1842    1700    1597
    1533    1437    1403    1365    1399    1258    1301    1336    1262    1265
    1221    1275    1232    1239    1208    1272    1173    1208    1177    1148
    1153    1195    1171    1184    1140    1173    1196    1223    1184    1161
    1145    1124    1158    1175    1192    1196    1198    1190    1148    1199
    1210    1147    1140    1161    1151    1185    1204    1176    1236    1277
    1213    1189    1241    1253    1239    1303    1316    1305    1313    1325
    1342    1268    1382    1344    1431    1470    1606    1639    1704    1906
    2098    2400    2693    3065    3524    3805    3809    3517    3234    2845
    2505    2270    2046    1860    1685    1657    1553    1494    1469    1451
    1456    1446    1393    1420    1499    1577    1607    1632    1729    1787
    1777    1788    1751    1684    1648    1594    1501    1461    1417    1343
    1328    1287    1259    1293    1244    1159    1161    1237    1218    1140
    1206    1198    1161    1197    1193    1172    1087    1183    1167    1157
    1149    1210    1134    1149    1163    1167    1143    1190    1185    1212
    1221    1170    1125    1149    1169    1171    1212    1128    1150    1169
    1108    1097    1110    1102    1111    1122    1104    1120    1152    1159
    1144    1140    1155    1167    1148    1127    1125    1126    1153    1127
    1171    1135    1120    1098    1126    1119    1149    1144    1128    1147
    1149    1172    1096    1168    1144    1166    1197    1174    1168    1167
    1145    1127    1120    1133    1130    1124    1124    1116    1178    1153
    1151    1185    1166    1168    1181    1170    1180    1200    1159    1163
    1162    1179    1234    1230    1243    1205    1232    1297    1277    1305
    1351    1424    1446    1509    1540    1587    1621    1716    1677    1676
    1683    1615    1588    1505    1485    1469    1460    1420    1379    1286
    1266    1217    1311    1229    1241    1197    1228    1190    1172    1163
    1212    1123    1152    1140    1122    1126    1125    1173    1113    1106
    1139    1121    1119    1103    1125    1097    1118    1107    1067    1054
    1085    1161    1164    1098    1121    1129    1136    1101    1116    1139
    1154    1110    1139    1132    1111    1146    1118    1148    1156    1146
    1143    1088    1075    1158    1064    1112    1133    1166    1198    1095
    1134    1115    1115    1159    1181    1064    1108    1142    1113    1146
    1135    1141    1106    1141    1192    1155    1096    1145    1114    1102
    1119    1187    1181    1129    1142    1185    1142    1188    1195    1166
    1185    1194    1181    1154    1182    1173    1193    1215    1230    1222
    1256    1248    1261    1230    1307    1325    1393    1362    1385    1497
    1575    1602    1688    1733    1763    1920    2088    2129    2453    2782
    3039    3484    4233    4953    5742    6130    6134    6025    5609    5171
    4746    4521    4405    4088    3650    3104    2664    2314    2115    1900
    1745    1644    1505    1467    1435    1366    1353    1307    1326    1311
    1281    1239    1214    1211    1167    1177    1187    1204    1218    1155
    1209    1225    1144    1190    1168    1133    1178    1180    1196    1145
    1162    1125    1070    1135    1097    1146    1143    1114    1160    1082
    1075    1074    1087    1121    1056    1065    1171    1093    1061    1099
    1095    1122    1126    1130    1123    1115    1086    1091    1125    1138
    1084    1050    1105    1134    1102    1084    1098    1119    1124    1117
    1147    1185    1117    1081    1062    1036    1081    1135    1098    1089
    1083    1092    1090    1058    1086    1083    1087    1131    1073    1038
    1087    1047    1122    1128    1189    1077    1075    1130    1082    1078
    1081    1075    1110    1115    1089    1098    1095    1112    1138    1128
    1072    1055    1101    1123    1078    1087    1106    1119    1103    1118
    1114    1106    1125    1115    1133    1158    1172    1161    1108    1095
    1097    1117    1174    1150    1164    1205    1169    1153    1211    1186
    1247    1215    1275    1304    1349    1375    1397    1450    1518    1535
    1609    1742    1794    1958    1954    2072    2130    2191    2254    2258
    2247    2200    2138    2146    2043    1959    1895    1778    1755    1672
    1577    1520    1455    1385    1350    1310    1297    1271    1228    1203
    1198    1179    1197    1172    1196    1190    1161    1163    1176    1171
    1139    1142    1184    1170    1126    1102    1138    1136    1107    1123
    1127    1119    1065    1118    1103    1106    1104    1159    1098    1141
    1120    1133    1169    1076    1150    1131    1129    1126    1125    1158
    1107    1128    1091    1154    1142    1153    1104    1111    1132    1162
    1163    1167    1105    1088    1117    1091    1120    1163    1148    1110
    1067    1073    1082    1119    1140    1150    1130    1115    1149    1164
    1095    1113    1095    1139    1122    1133    1137    1162    1085    1123
    1120    1153    1131    1133    1069    1067    1095    1179    1084    1101
    1123    1098    1105    1090    1096    1150    1139    1103    1143    1100
    1139    1198    1119    1162    1116    1124    1158    1127    1105    1121
    1157    1127    1114    1142    1111    1068    1071    1121    1109    1144
    1132    1127    1185    1179    1169    1147    1150    1117    1131    1108
    1153    1119    1129    1090    1109    1059    1131    1143    1125    1174
    1082    1120    1147    1146    1085    1081    1100    1160    1111    1131
    1076    1086    1117    1068    1072    1110    1167    1140    1135    1171
    1118    1036    1049    1079    1122    1112    1072    1104    1154    1132
    1128    1126    1115    1123    1125    1086    1101    1103    1097    1109
    1144    1115    1115    1133    1071    1097    1118    1133    1164    1097
    1073    1095    1091    1135    1059    1035    1072    1063    1080    1123
    1141    1056    1131    1068    1104    1114    1064    1070    1069    1081
    1131    1074    1071    1091    1137    1108    1083    1106    1103    1090
    1074    1069    1069    1098    1102    1093    1052    1056    1061    1086
    1098    1123    1087    1076    1110    1078    1096    1086    1060    1040
    1052    1094    1064    1040    1079    1093    1099    1113    1066    1091
    1148    1080    1072    1051    1057    1093    1112    1041    1153    1045
    1080    1061    1074    1102    1073    1053    1070    1055    1145    1107
    1113    1079    1100    1101    1095    1023    1093    1091    1087    1086
    1091    1105    1076    1093    1079    1057    1078    1079    1072    1095
    1091    1082    1071    1058    1109    1119    1074    1091    1098    1106
    1075    1044    1105    1089    1074    1080    1068    1071    1049    1085
    1101    1039    1144    1127    1073    1043    1070    1069    1095    1113
    1043    1030    1089    1078    1045    1075    1057    1075    1070    1090
    1111    1110    1111    1084    1111    1105    1086    1093    1132    1154
    1155    1171    1162    1180    1219    1238    1283    1229    1245    1295
    1277    1259    1252    1212    1202    1242    1197    1144    1114    1084
    1085    1105    1084    1142    1114    1118    1133    1118    1148    1110
    1122    1080    1072    1067    1031    1024    1082    1046    1116    1080
    1090    1073    1061    1068    1084    1044    1113    1058    1049    1065
    1076    1087    1111    1071    1053    1103    1083    1072    1069    1069
    1043    1046    1068    1078    1043    1051    1072    1012    1004    1065
    1086    1086    1098    1104    1071    1061    1093    1103    1045    1066
    1065    1085    1056    1065    1076    1094    1038    1017    1057    1067
    1047    1108    1072    1091    1061    1075    1134    1059    1102    1103
    1102    1089    1084     995    1020    1089    1073    1048    1079    1082
    1071    1120    1107    1118    1094    1049    1055    1070    1050    1047
    1087    1124    1082    1078    1100    1106    1072    1083    1114    1053
    1028    1035    1081    1083    1035    1053    1008    1040    1050    1089
    1090    1075    1092    1102    1023    1035    1179    1123    1174    1032
    1060    1143    1100    1100    1073    1065    1088    1073    1090    1079
    1052    1065    1098    1116    1061    1068    1084    1089    1036    1077
    1091    1121    1100    1062    1039    1038    1098    1095    1106    1091
    1073    1070    1103    1109    1077    1070    1105    1117    1093    1113
    1112    1087    1088    1041    1089    1056    1037    1033    1068    1088
    1074    1122    1069    1067    1103    1083    1067    1143    1028    1147
    1112    1145    1088    1031    1074    1132    1100    1114    1167    1115
    1132    1165    1120    1103    1204    1139    1256    1258    1243    1209
    1265    1287    1352    1359    1421    1465    1524    1611    1648    1679
    1727    1735    1678    1646    1648    1637    1555    1514    1504    1459
    1448    1416    1398    1394    1328    1275    1221    1216    1241    1199
    1184    1251    1194    1135    1216    1064    1143    1103    1123    1114
    1128    1121    1101    1118    1144    1063    1110    1106    1152    1129
    1150    1117    1107    1115    1138    1157    1167    1097    1108    1082
    1090    1165    1110    1085    1125    1140    1099    1097    1116    1084
    1099    1058    1044    1046    1100    1133    1123    1085    1111    1093
    1061    1042    1070    1103    1077    1095    1077    1120    1083    1073
    1093    1074    1113    1114    1050    1134    1113    1101    1081    1027
    1089    1073    1105    1101    1170    1123    1067    1068    1089    1082
    1120    1106    1139    1159    1162    1117    1138    1120    1119    1104
    1088    1100    1124    1102    1123    1159    1147    1162    1177    1157
    1173    1244    1267    1302    1325    1339    1392    1435    1471    1584
    1663    1783    1879    1958    1952    1945    2020    1907    1816    1793
    1708    1568    1498    1454    1404    1433    1279    1312    1282    1223
    1234    1271    1191    1289    1194    1221    1208    1200    1199    1191
    1299    1282    1262    1321    1391    1447    1450    1519    1574    1568
    1514    1540    1515    1486    1503    1435    1394    1460    1451    1402
    1389    1377    1290    1301    1337    1250    1216    1254    1192    1221
    1186    1150    1130    1129    1109    1095    1096    1135    1107    1120
    1086    1114    1100    1120    1133    1091    1178    1102    1077    1085
    1138    1087    1111    1094    1095    1091    1131    1090    1099    1079
    1053    1059    1101    1096    1097    1095    1089    1080    1066    1080
    1117    1121    1096    1099    1086    1080    1112    1125    1063    1019
    1056    1085    1089    1065    1096    1079    1093    1061    1044    1110
    1119    1154    1137    1062    1082    1098    1061    1149    1094    1122
    1068    1109    1073    1098    1103    1101    1058    1117    1129    1108
    1099    1120    1125    1087    1060    1050    1089    1154    1162    1104
    1085    1090    1105    1109    1097    1091    1105    1085    1051    1055
    1060    1076    1095    1098    1078    1075    1086    1055    1086    1108
    1122    1088    1137    1128    1038    1077    1139    1069    1051    1079
    1122    1145    1078    1074    1119    1101    1118    1085    1143    1134
    1151    1075    1094    1087    1103    1143    1078    1141    1100    1077
    1087    1100    1108    1124    1080    1106    1123    1101    1115    1103
    1127    1167    1139    1113    1158    1135    1138    1161    1142    1128
    1136    1157    1121    1167    1194    1200    1217    1238    1228    1257
    1312    1368    1349    1424    1528    1574    1618    1618    1750    1726
    1798    1787    1836    1850    1817    1825    1718    1730    1726    1585
    1568    1547    1489    1477    1478    1370    1318    1342    1339    1255
    1278    1252    1198    1221    1241    1175    1178    1171    1159    1172
    1189    1193    1225    1193    1197    1227    1217    1160    1168    1232
    1210    1233    1197    1234    1303    1324    1289    1323    1299    1383
    1396    1466    1490    1521    1598    1579    1690    1769    1845    2015
    2087    2166    2253    2350    2351    2323    2506    2641    2586    2489
    2406    2445    2383    2330    2313    2297    2233    2093    2073    1982
    1856    1807    1766    1658    1605    1527    1466    1454    1434    1391
    1338    1342    1329    1254    1181    1195    1199    1191    1213    1192
    1200    1202    1217    1203    1173    1155    1123    1114    1119    1154
    1174    1146    1129    1105    1106    1085    1170    1069    1141    1106
    1115    1138    1143    1119    1105    1142    1125    1096    1095    1073
    1088    1090    1043    1049    1111    1084    1071    1093    1064    1072
    1096    1073    1101    1107    1108    1132    1085    1076    1089    1125
    1091    1062    1131    1147    1119    1074    1100    1083    1067    1114
    1082    1043    1089    1100    1090    1077    1070    1078    1091    1067
    1070    1126    1105    1099    1102    1139    1128    1104    1100    1072
    1001    1092    1068    1099    1061    1150    1188    1141    1124    1112
    1147    1185    1177    1186    1187    1145    1145    1219    1239    1226
    1210    1236    1276    1260    1250    1322    1349    1357    1438    1468
    1536    1622    1772    1851    2010    2268    2423    2533    2714    2848
    3001    3012    2907    2865    2746    2711    2634    2516    2507    2311
    2278    2247    2120    2052    1971    1880    1782    1657    1671    1560
    1382    1331    1270    1238    1239    1243    1166    1183    1190    1196
    1149    1139    1124    1120    1160    1132    1106    1108    1135    1148
    1133    1115    1078    1094    1116    1094    1093    1082    1092    1088
    1090    1105    1107    1092    1101    1101    1094    1050    1094    1102
    1079    1129    1145    1130    1169    1099    1091    1162    1081    1109
    1111    1079    1003    1126    1038    1107    1088    1087    1102    1036
    1129    1089    1099    1073    1094    1086    1068    1045    1054    1062
    1096    1102    1104    1090    1081    1046    1076    1102    1116    1110
    1088    1073    1058    1076    1100    1088    1059    1082    1099    1117
    1102    1071    1069    1030    1059    1083    1044    1037    1091    1079
    1106    1058    1092    1063    1099    1096    1079    1093    1078    1080
    1011    1094    1082    1069    1088    1098    1098    1109    1102    1065
    1059    1077    1125    1045    1055    1074    1079    1092    1075    1065
    1049    1038    1102    1116    1074    1098    1095    1078    1084    1080
    1061    1055    1067    1082    1067    1043    1062    1076    1053    1055
    1078    1115    1099    1057    1037    1079    1038    1087    1087    1040
    1121    1113    1127    1111    1127    1049    1086    1086    1040    1043
    1070    1058    1066    1118    1106    1090    1038    1102    1091    1083
    1032    1065    1060    1061    1091    1096    1097    1104    1096    1115
    1050    1043    1078    1074    1080    1064    1076    1084    1057    1072
    1059    1027    1019    1070    1094    1084    1091    1089    1093    1086
    1093    1071    1082    1102    1079    1085    1085    1115    1085    1175
    1124    1102    1102    1144    1198    1183    1139    1143    1177    1101
    1187    1131    1211    1176    1247    1187    1192    1330    1272    1353
    1382    1384    1497    1474    1495    1647    1729    1856    1881    1976
    2071    2207    2372    2538    2559    2610    2714    2726    2710    2745
    2677    2592    2575    2519    2496    2369    2314    2318    2261    2249
    2136    1943    1925    1823    1755    1687    1581    1571    1517    1486
    1419    1371    1375    1370    1281    1416    1322    1357    1305    1237
    1198    1327    1318    1405    1345    1318    1306    1228    1322    1305
    1295    1256    1210    1242    1240    1190    1161    1197    1173    1136
    1113    1137    1142    1131    1100    1109    1111    1134    1099    1075
    1091    1102    1131    1095    1121    1115    1088    1127    1117    1119
    1119    1137    1101    1074    1113    1113    1100    1089    1087    1114
    1109    1140    1059    1129    1076    1090    1044    1110    1092    1088
    1056    1118    1097    1081    1041    1041    1086    1100    1065    1063
    1108    1054    1066    1075    1040    1042    1025    1079    1066    1068
    1075    1068    1070    1082    1087    1084    1078    1074    1055    1050
    1061    1077    1066    1058    1073    1097    1066    1086    1030    1036
    1032    1066    1080    1025    1068    1010    1076    1025    1043    1071
    1055    1073    1083    1067    1061    1084    1099    1068    1109    1093
    1109    1102    1077    1078    1072    1125    1085    1073    1050    1075
    1083    1060    1072    1084    1059    1073    1046    1045    1069    1071
    1089    1053    1046    1054    1056    1053    1058    1075    1084    1076
    1041    1038    1049    1026    1069    1051    1102    1099    1088    1108
    1121    1126    1052    1078    1101    1054    1151    1088    1098    1090
    1031    1075    1086    1118    1037    1057    1030    1052    1072    1065
    1040    1054    1049    1079    1095    1059    1093    1072    1061    1068
    1064    1083    1062    1048    1043    1053    1068    1086    1081    1067
    1047    1068    1108    1121    1126    1099    1081    1105    1124    1110
    1089    1083    1167    1146    1135    1097    1133    1125    1123    1106
    1131    1156    1159    1104    1128    1148    1155    1139    1178    1101
    1162    1155    1171    1216    1173    1122    1228    1245    1162    1218
    1233    1271    1211    1220    1241    1226    1257    1332    1324    1291
    1332    1330    1338    1323    1345    1354    1320    1305    1311    1288
    1219    1206    1242    1212    1159    1158    1152    1135    1153    1198
    1186    1152    1107    1100    1081    1128    1120    1093    1126    1160
    1135    1078    1108    1086    1090    1134    1086    1113    1059    1112
    1084    1068    1043    1106    1136    1166    1084    1141    1091    1099
    1121    1102    1115    1131    1081    1111    1111    1122    1145    1131
    1086    1120    1103    1073    1163    1162    1112    1111    1122    1117
    1104    1098    1123    1147    1135    1120    1084    1089    1090    1053
    1015    1067    1047    1096    1131    1109    1125    1081    1116    1118
    1134    1042    1079    1068    1081    1096    1050    1113    1066    1018
    1052    1058    1058    1085    1063    1048    1076    1072    1076    1061
    1078    1077    1110    1097    1083    1099    1075    1095    1047    1057
    1076    1042    1041    1035    1053    1088    1088    1083    1041    1027
    1070    1076    1055    1085    1061    1046    1075    1027    1068    1065
    1072    1136    1085    1039    1090    1056    1130    1099    1046    1094
    1062    1029    1083    1078    1070    1075    1100    1086    1068    1048
    1082    1099    1041    1054    1074    1037    1053    1057    1043    1057
    1058    1074    1074    1052    1020    1038    1049    1071    1115    1111
    1074    1065    1060    1087    1089    1073    1093    1083    1075    1035
    1025    1047    1052    1083    1056    1048    1027    1055    1092    1071
    1078    1049    1099    1120    1079    1022    1078    1061    1068    1061
    1038    1059    1034    1058    1093    1075    1044    1007    1102    1072
     984    1032    1044    1069    1068    1067    1074    1067    1052    1106
    1099    1057    1034    1063    1035    1029    1071    1096    1052    1060
    1082    1080    1047    1040    1088    1057    1064    1068    1069    1081
    1086    1043    1015    1072    1083    1057    1108    1077    1034    1069
    1095    1099    1073    1042    1080    1044    1047    1031    1050    1098
    1069     992    1003    1072    1053    1093    1055    1014    1055    1067
    1088    1071    1081    1053    1043    1040    1064    1090    1120    1077
    1081    1070    1081    1068    1093    1125    1070    1101    1097    1077
    1077    1086    1064    1083    1121    1077    1115    1069    1034    1051
    1079    1078    1119    1057    1073    1063    1084    1124    1065    1100
    1130    1141    1131    1144    1163    1132    1159    1186    1169    1183
    1162    1253    1265    1250    1265    1334    1354    1424    1428    1486
    1591    1585    1597    1667    1642    1722    1684    1669    1712    1692
    1643    1598    1557    1534    1537    1548    1522    1537    1559    1538
    1478    1457    1406    1418    1357    1262    1254    1271    1269    1337
    1245    1202    1238    1253    1227    1259    1191    1190    1167    1152
    1247    1246    1206    1139    1190    1155    1186    1125    1156    1181
    1219    1148    1115    1164    1139    1111    1152    1145    1099    1141
    1125    1144    1140    1125    1133    1097    1064    1071    1106    1113
    1092    1066    1044    1077    1089    1098    1073    1085    1080    1043
    1038    1014    1031    1076    1045    1067    1092    1107    1075    1035
    1043    1046    1085    1029    1041    1066    1125    1055    1073    1117
    1077    1104    1051    1023    1105    1087    1093    1050    1044    1038
    1036    1055    1075    1077    1019    1022    1049    1092    1076    1061
    1089    1061    1056    1082    1059    1008    1032    1025    1027    1065
    1056    1075    1094    1111    1090    1060    1063    1072    1088    1087
    1066    1081    1101    1073    1116    1089    1034    1041    1033    1031
    1015    1049    1048    1038    1041    1048    1025    1117    1037    1113
    1068    1050    1029    1041    1115    1036    1041    1074    1038    1075
    1087    1107    1100    1023    1062    1060    1088    1065    1098    1095
    1061    1047    1076    1100    1117    1090    1100    1086    1067    1078
    1073    1087    1084    1120    1153    1072    1044    1094    1128    1067
    1069    1106    1087    1128    1049    1083    1035    1113    1092    1051
    1038    1081    1043    1069    1097    1086    1077    1086    1020    1073
    1042    1098    1083    1054    1067    1072    1154    1069    1054    1071
    1102    1073    1077    1069    1044    1057    1036    1055    1081    1112
    1098    1066    1106    1111    1094    1125    1115    1102    1114    1091
    1096    1081    1054    1060    1102    1091    1083    1080    1103    1112
    1129    1123    1115    1106    1156    1105    1165    1157    1126    1105
    1146    1176    1190    1159    1160    1209    1181    1255    1287    1279
    1267    1306    1338    1379    1415    1407    1485    1451    1473    1559
    1580    1566    1509    1524    1566    1634    1580    1603    1660    1698
    1701    1705    1730    1753    1785    1815    1763    1679    1666    1682
    1621    1577    1562    1556    1545    1506    1433    1442    1455    1418
    1426    1427    1380    1312    1334    1305    1296    1291    1223    1223
    1193    1213    1138    1137    1197    1181    1103    1118    1142    1187
    1107    1125    1057    1070    1096    1112    1072    1087    1152    1139
    1109    1171    1151    1140    1148    1104    1110    1120    1125    1108
    1132    1173    1145    1159    1167    1190    1186    1185    1190    1162
    1217    1232    1228    1226    1212    1216    1240    1193    1243    1191
    1189    1206    1167    1228    1160    1190    1178    1177    1157    1125
    1158    1178    1175    1173    1170    1194    1136    1134    1137    1129
    1140    1111    1068    1108    1071    1117    1097    1078    1083    1123
    1062    1055    1073    1085    1052    1043    1096    1122    1050    1062
    1063    1044    1063    1051    1084    1098    1066    1042    1065    1073
    1050    1093    1084    1059    1044    1060    1040    1084    1087    1065
    1033     992    1039    1027    1087    1025    1094    1086    1061    1111
    1113    1103    1046    1078    1094    1019    1068    1077    1080    1043
    1028    1014    1050    1065    1106    1046    1051    1051    1042    1057
    1045    1044    1065    1092    1074    1063    1062    1067    1050    1036
    1069    1057    1020    1065    1070    1046    1033    1076    1097    1076
    1082    1077    1045    1073    1042    1017    1021    1092    1023    1104
    1063    1064     996    1072    1016    1060    1145    1033    1006    1106
    1079    1123    1112    1059    1072    1051    1055    1048    1058    1066
    1092    1091    1106    1072    1063    1097    1150    1100    1019    1063
    1110    1082    1108    1112    1082    1096    1114    1064    1061    1097
    1075    1110    1111    1100    1093    1078    1097    1094    1120    1057
    1093    1136    1125    1067    1071    1070    1114    1072    1067    1109
    1101    1061    1051    1040    1030    1060    1099    1088    1059    1075
    1071    1092    1086    1056    1069    1082    1074    1086    1126    1088
    1059    1045    1052    1056    1052    1092    1094    1057    1067    1037
    1038    1042    1059    1117    1129    1092    1033    1026    1025    1064
    1119    1076    1073    1118    1061    1061    1048    1071    1054    1067
    1058    1057    1036    1047    1040    1064    1061    1062    1068    1068
    1075    1084    1081    1129    1100    1020    1121    1136    1072    1065
    1072    1070    1088    1098    1074    1079    1108    1111    1097    1130
    1120    1108    1160    1167    1142    1092    1085    1140    1157    1123
    1089    1102    1099    1086    1078    1087    1088    1102    1098    1067
    1117    1102    1092    1096    1131    1106    1058    1100    1100    1077
    1044    1094    1086    1060    1062    1041    1058    1010    1035    1099
    1019    1075    1116    1095    1071    1104    1151    1088    1139    1091
    1085    1057    1087    1092    1137    1119    1080    1123    1189    1193
    1206                                                                        
