Co 880                                                                          
BANK       1    4941     494   CONST  1600.0     1.7     0.0     0.0         STD
     687     727     702     686     732     714     735     689     713     706
     696     673     735     685     678     712     729     730     719     688
     697     705     700     678     667     660     691     725     744     741
     747     752     711     709     693     712     704     691     727     743
     689     667     661     664     686     702     724     754     751     722
     699     698     691     695     715     707     686     739     652     664
     686     695     683     724     651     713     714     725     686     710
     720     689     675     717     733     691     670     686     695     710
     714     715     715     726     701     729     718     691     694     693
     706     702     704     714     697     706     723     701     701     696
     714     723     714     731     703     707     722     678     710     698
     670     715     653     762     691     699     723     676     700     681
     669     745     699     683     682     653     706     726     741     706
     703     725     683     739     705     720     739     711     712     717
     716     693     725     746     728     695     715     706     672     713
     739     739     730     732     742     726     736     733     713     712
     679     752     768     666     702     754     718     715     725     713
     742     749     734     738     692     694     714     730     727     775
     767     723     730     712     717     713     698     728     719     694
     679     674     713     712     700     693     713     710     709     728
     709     698     695     701     734     711     701     721     729     731
     753     733     735     716     726     719     708     715     762     738
     717     703     745     747     766     731     787     833     823     916
     928    1052    1243    1465    1408    1249    1170    1070     955     916
     842     773     749     742     751     765     735     754     745     728
     770     767     738     764     776     751     753     762     763     717
     735     744     745     798     798     776     773     768     755     732
     748     747     747     730     722     709     749     769     744     713
     730     730     739     738     757     763     729     799     718     721
     713     748     708     734     778     749     760     779     756     724
     755     730     733     708     762     791     742     733     770     767
     746     740     740     756     759     734     693     723     758     769
     765     756     742     760     753     755     750     723     723     738
     761     734     767     712     700     723     772     782     730     701
     760     780     770     728     786     822     779     823     825     944
     935    1050    1244    1501    1914    2347    2469    2602    2273    1969
    1727    1360    1172    1059     964     869     811     758     739     725
     739     759     751     749     734     737     774     735     701     729
     759     773     779     757     759     726     715     736     730     742
     769     742     744     733     773     777     766     731     779     752
     718     787     735     725     770     701     765     724     741     786
     724     747     776     741     734     748     725     758     806     753
     726     778     789     730     738     737     731     758     733     715
     741     779     749     706     728     734     743     761     756     777
     764     751     756     754     736     719     718     738     739     728
     747     767     752     756     785     751     756     771     736     748
     771     702     700     752     730     747     773     765     766     738
     773     756     719     726     749     773     792     789     773     740
     735     732     756     782     734     751     760     740     756     785
     775     721     711     771     759     765     791     745     765     756
     738     769     730     740     749     738     735     754     738     769
     755     775     747     742     774     775     749     770     787     757
     704     722     758     728     752     790     786     739     747     727
     794     739     733     748     768     757     716     760     748     760
     792     742     719     771     780     776     771     769     757     759
     778     771     746     737     750     772     751     763     769     761
     770     792     788     748     735     766     733     763     768     781
     752     741     769     789     749     774     776     762     803     761
     797     778     736     775     791     762     746     740     740     753
     737     785     782     777     796     778     808     765     790     798
     757     764     758     756     764     757     769     777     761     739
     710     747     790     794     815     807     769     770     783     797
     820     800     767     736     777     772     751     790     757     798
     780     722     790     808     779     780     731     767     796     787
     781     780     772     802     778     780     745     794     808     768
     779     800     808     775     766     760     771     815     767     753
     764     769     793     780     754     759     761     770     773     774
     781     790     740     755     794     809     813     787     776     827
     745     751     801     777     738     794     759     807     824     785
     790     727     726     743     825     803     759     817     837     819
     770     790     823     731     794     785     745     798     832     804
     791     789     814     797     771     801     807     777     774     797
     826     825     818     796     789     791     817     828     807     798
     789     771     773     817     793     828     803     787     791     808
     794     765     758     761     817     801     772     810     807     820
     785     813     818     821     839     880     829     835     817     796
     816     819     775     767     782     838     832     831     822     820
     830     813     791     827     829     804     814     811     812     835
     823     815     806     811     821     814     843     821     837     878
     891     860     865     838     852     821     803     840     832     799
     868     862     816     834     813     789     806     835     830     821
     849     876     858     859     823     817     777     831     869     884
     836     861     822     808     852     841     820     865     883     855
     843     816     840     863     851     843     799     823     865     863
     841     820     846     894     880     828     885     848     819     832
     826     839     855     883     853     860     870     863     879     870
     834     875     844     898     892     805     846     874     877     852
     867     874     861     853     892     843     851     851     897     857
     878     857     878     863     861     877     863     878     883     902
     898     900     883     881     908     889     896     901     885     825
     801     854     872     878     865     878     858     905     866     871
     832     855     859     857     857     889     884     903     902     931
     926     917     866     846     903     856     868     826     919     881
     885     930     922     917     913     894     885     875     860     833
     841     939     904     858     883     872     854     863     894     885
     895     896     902     902     916     889     887     888     861     883
     913     921     904     886     898     890     878     884     952     930
     985     939     962     962     934     971     976     982    1031    1037
    1147    1240    1454    1729    2132    2471    2606    2507    2213    1873
    1632    1510    1335    1189    1108    1003     995     975    1005     939
     966     968     931     925     953     919     914     927     924     917
     923     929     877     892     928     929     921     928     958     965
     959     941     944     934     921     898     907     907     980     970
     932     950     934     946     970     939     962     940     965     890
     937     915     916     926     943     936     945     946     936     931
     966     969     963     963     900     905     954     942     947     917
     943     959     935     940     938     924     910     932     942     923
     918     925     923     949     969     937     893     911     904     928
     905     885     938     918     880     927     895     920     905     924
     910     931     957     885     916     902     932     884     900     974
     963     930     927     921     854     912     968     907     848     950
     944     932     939     927     949     934     912     926     924     885
     915     910     894     903     937     937     950     953     939     947
     921     921     921     931     944     914     930     916     874     907
     960     967     971     901     918     922     980     935     904     927
     960     960     922     924     962     940     978     938     907     955
     912    1009     930     929     949     952     970     957    1007     972
     911     911     950     957     953     969     959     961     983    1024
    1050    1094    1091    1165    1301    1439    1684    2079    2724    3687
    4649    5045    4916    4556    4297    4034    3716    3187    2609    2065
    1707    1497    1325    1192    1204    1064    1038    1003     991     963
    1020     984    1011     919    1008     978     964     985     928     941
     919     953     907     911     932     963     945     926     936     900
     883     905     941     920     906     908     942     936     920     909
     955     977     951     944     950     884     930     973     968     951
     954     939     915     878     930     928     899     876     891     934
     975     952     935     925     943     934     901     911     902    1001
     967     947     945     947    1003     928     895     949     920     944
     949     943     909     895     941     960     917     907     973     984
     963     982     949     968     921     937     990     981    1002    1021
    1074    1169    1247    1416    1499    1509    1427    1345    1365    1294
    1227    1205    1195    1163    1142    1115    1138    1134    1169    1224
    1342    1408    1609    1968    2460    3447    4460    5544    6050    6174
    5620    4840    4078    3388    2730    2242    1927    1671    1503    1373
    1298    1207    1204    1166    1172    1141    1133    1122    1116    1066
    1055    1054    1066    1095    1064    1044    1027    1037    1060    1040
    1012    1046    1045    1038    1053    1073    1076    1076    1038    1036
    1031    1015    1060    1053    1014    1008     954     985    1004    1055
    1017    1030    1059     978    1004    1093    1038    1050    1089    1025
    1065     994    1024    1001    1017    1033    1005    1002    1015    1005
     992     980    1004    1003    1015    1013    1005    1002    1006    1004
    1016    1013    1034    1038    1022    1001     972    1004     988     996
    1037    1040    1050    1011     991     980    1026    1063    1052    1081
    1118    1178    1210    1229    1241    1177    1133    1109    1088    1094
    1024     994    1041     998     969    1026    1025     954     975    1019
    1010     999     984     984     966    1046     970    1015    1020     998
    1026    1018    1008    1023    1050    1023    1006    1005     989    1031
     986     986     989     983     974     950     967     981     989    1012
    1034    1017     964    1007    1003     981     950     969     961     987
     980    1040    1054    1058    1022    1002    1029     985     991    1000
     969    1016     993    1017    1014     960    1021     995     982    1034
     975     991     998    1041     981     979     971    1015     988     992
    1010     993     981    1010     975    1005    1020    1006    1022    1026
     986    1000    1055    1058    1067    1077    1050    1062    1115    1120
    1137    1189    1231    1406    1750    2045    2305    2347    2223    2019
    2040    2018    2011    1819    1678    1549    1405    1393    1341    1373
    1434    1481    1480    1550    1649    1768    2007    2507    3161    4452
    6387    9288   11806   13422   13783   12813   11849   11232   10675    9748
    8309    6697    5257    4084    3246    2518    2099    1779    1548    1440
    1329    1246    1202    1189    1174    1163    1141    1104    1078    1096
    1073    1066    1051    1010    1017    1048    1018    1019    1025    1078
    1074     998     997    1059    1039    1092    1005    1018    1027     991
    1047     989    1035     994     992     996    1037     965     999     993
    1001    1026     997     966    1003     975    1058    1033    1021    1019
    1026     969     957     988    1018    1004    1006     996    1001    1042
    1039    1043    1066    1032    1002    1026    1030    1043    1087    1064
    1066    1106    1159    1338    1588    1897    2070    2090    2076    1866
    1684    1624    1441    1435    1272    1222    1212    1149    1118    1086
    1036    1009    1107    1124    1130    1211    1192    1430    1593    1791
    1941    1851    1808    1722    1674    1645    1601    1556    1423    1325
    1270    1186    1138    1073    1054    1037    1025    1057    1044    1002
    1009    1007     990     985     990     979     995    1059    1037     967
     979     984     970     962    1002    1036    1051     975     958     972
     979     992     965    1038     951     904     951     996     979     976
    1019     938     973     944     930     958     926     971    1044    1008
     956     958     961    1011    1006     984     943     941     988     977
    1012    1033    1007    1010     987     984     975     945     964     985
     976     980     978     968     942     993     993     976     955     957
     967     973     991     990     968     995     977     983     987    1020
     940     903     989     947    1011     934     996     954     980    1023
     985     991    1042    1001    1006    1019    1051    1046    1005    1013
    1045    1116    1164    1225    1345    1541    1766    1946    2073    2086
    2021    1921    1858    1681    1508    1406    1310    1218    1153    1148
    1111    1069    1028    1011    1022    1041    1004     993    1005    1022
    1017    1001     979     991    1011     961     985    1010     947     975
     982     963    1067    1000     968     928     952     994    1001     961
     985    1004    1001    1014     974     995     982     974     990    1005
     990    1021     966     980     992     981     976     997     952     971
     999     963     949     967     941     914     948     977     967     955
     964     969     986     983     961     955     970     966     977     949
     975     923     970     998     951     911     972     993     978     991
     964     980     964     955     969     923     965     977    1031     949
     967     917     933     981     948     993    1011     961     981     966
     957     965     961     991     965     970     993     986    1001    1036
    1026    1010    1004    1014    1050    1076    1109    1185    1314    1506
    1879    2384    2920    3041    2816    2590    2389    2355    2405    2451
    2251    1954    1749    1576    1342    1279    1135    1180    1116    1034
    1037    1039    1021    1009     992     994     983    1014    1001     970
     983     996     930     928     975     966     991     940     979     945
     947    1001     959     962     979     996    1010     978     950     931
     972     982     976    1008     988     978     952     948     946     956
     972     971     905     937     978     945     919     955     978     941
     936     979     989     971     935     949     950    1013    1005     948
     967     984     957     996     962    1008     920     953     947     954
     993     988     961     925     960     971     924     943     993     973
     961     974     968     953     953     971     981     936     962     988
    1006     967     928     964     988     991     920     967     977     921
     964     991     964     961     961     987    1008     935     954     957
     910     938     942     945    1001     992     959     928    1005    1005
     959     972     968     984     977    1021     949     975    1002     980
     989     977     980     989    1020    1035    1021    1013    1022    1058
    1042    1042    1092    1059    1102    1196    1244    1369    1512    1744
    2095    2478    2868    3094    3201    3209    3010    2877    2753    2692
    2495    2347    2157    1964    1795    1587    1492    1338    1229    1168
    1094    1106     985    1030    1030    1007    1017    1000     961    1028
     997    1033    1004     991    1018    1003     990    1015    1038     989
     964     931    1001    1029    1013    1016     988     965     978     978
     995    1026    1007     993    1037    1042     998     990     967     977
     994     987     976     923     988    1032     961     958     990    1000
     964     991     955    1001    1007     958     959     926    1004     893
     985     961     974     952    1000     971     981    1001    1005     978
     957     948     983    1012    1018    1029     960     966     989     977
     976     987     963     960    1002     983     967     989     983    1008
     981     968     955     933     985    1032    1051    1007    1006     998
     978    1007    1024     974     999    1013    1036     999     981     964
     953    1001    1053     995    1016     921     945     949     978     988
     978     977     988    1051    1007     990     987    1013     959     994
     988     983     987     974     995    1001     977    1021    1004    1001
    1011    1022     988     948     956     958     979     992     984     995
    1001     991    1010    1010     991     992     952     963     966    1009
    1010     997    1005     963     950     962    1033    1007    1011     957
     956     953     980     991     935     976    1014     944    1000     972
     965     973    1004     958     996    1040     966     974     983     993
     948     949     973     959    1003    1015     957     986     979    1001
     981     950     958     975     953     952     975     983     971     958
     959     969     988     990     957     958     912     972     937     941
     951     977     984     972     963     964    1010     968     959     978
     938     995     947     960     980     952    1020     971     934     987
     984     988    1016     973     970     899     961     949     962     962
     970     988     989     983     969     950     945     976     977     946
     973     996     981     970     943     939     978     980     957     927
     938     942     953     983    1019     967     954     959     936     965
     978    1015     961     993     990     962     966     998    1001     979
     989     978     963     994     946     969     927    1020     951     934
     888     895     945     971     993     966     994     956     993     939
     918     950     977     981     974     962     939     958     990     987
     954     959     962     978     991     988     944     939     937     967
     978    1011     993     964     965     985    1012     961     961    1007
     948    1005     990    1007    1103    1142    1296    1221    1186    1246
    1193    1224    1181    1185    1096    1053    1104    1011     983     991
     948     980    1023     952     956     977     957     982     959     937
     985     969     952     970     995     989     920     958     977     980
     993     974     968     942     971     981     961     926     974     978
     990     969     948     966     941     974     934     988     937     993
    1027     993     897     991     976     979     964     947     936     928
     980     953     916     962     972     966     997     981     970     972
     960     942     971     923     939     961     946     944     948     959
     973     970     936     984    1011     964     960     940     934     973
     956     949     959     945     937     963     971     926     956     971
     948    1005     972     954     996     944     944     943     982     997
     954     989     890     962     936    1008     969     966     970    1021
     968     975     978     912     920    1010     975     921    1003     977
     937     987     980     925     968    1003     959     981     980     955
     972     945     965    1013    1019     981     951     961     990     983
     990     973     990     989    1023    1017    1017     994    1002     940
     916    1007    1005    1019     958    1009     969     989     933     959
    1001     958     934    1006     988     938     965     939     917     948
     943     978     962     954     974     955     917     951     951     956
    1017    1002     979     973     964     980    1009    1024    1043    1011
    1017     987     968     984     937     942     979    1005     992    1008
    1047    1053    1046    1031    1000    1038    1015    1040    1074    1106
    1184    1278    1416    1461    1766    1913    2089    2191    2079    1997
    1892    1813    1742    1510    1558    1385    1319    1235    1220    1153
    1185    1108    1079    1095    1106    1089    1045    1019    1003     979
    1018    1009     970     982    1002     970     978     969     980    1020
    1018    1012    1020    1000    1012     992     938     959     947     949
     953     976     948     998     998     995     979     963    1011    1041
    1005    1017     982    1045     992     961     931    1016     950     933
     986    1009    1025    1007     954     999    1019    1006     971     960
    1002    1023    1048    1008     998     974     943     970     958     933
     960     976     986    1002    1001     990     958     968     982     947
     942     971     974    1008    1018     992     967     999     996    1009
    1017     979     949     970     969     965    1023     961    1001    1015
     965     961     966     990    1004    1044    1021    1005     993    1044
    1016    1051    1093    1142    1216    1324    1397    1416    1421    1324
    1269    1198    1193    1131    1118    1101    1073    1060    1024    1028
    1012    1010    1017    1003    1030    1021     998     976     980    1023
    1011     987     991    1016    1028    1036    1135    1178    1186    1289
    1474    1612    1669    1755    1670    1657    1598    1412    1531    1391
    1370    1475    1357    1324    1415    1234    1157    1133    1126    1078
    1088    1028    1037    1043     975     943     970    1040     990    1003
    1013    1004     957     970     984    1008    1016     975     963     998
     993    1005     977     931     991    1010     954     944     939     946
     931     918     929     968     980    1019     977     973     959     950
     971     997    1011     944     983     972    1001     941     928     979
    1047     937     944     997     962    1001     916     971     922     959
     983     992     965     966     967     945     941    1029    1013     927
     941     974     941     920     962     952     963     990     995     981
     954     993     987     991    1001     951     936     977     986     938
     950    1000     974     987    1003    1034    1022     999     989     975
     933     983     998     973     972     963     962     987     921    1006
     977     950     967     970     972     952     967    1032    1010    1021
     983     955     954     996     968     999     963     970     947     947
     989     988     971     911     955     987     961     974    1018    1027
     983     959     961     953     966    1006    1007     986    1019     989
     983    1003     993     961     961    1043    1013    1017    1016     999
    1025    1033     999     969    1020    1054    1004    1038     991    1024
    1059    1049    1137    1090    1171    1223    1314    1412    1547    1782
    2004    2159    2236    2328    2220    2121    1930    1847    1692    1616
    1497    1419    1340    1249    1182    1133    1128    1120    1097    1113
    1088    1034    1002    1025    1016    1005    1026    1063    1002    1031
    1040    1028    1023    1041    1002    1045    1076    1029     995    1002
    1010    1028    1052    1060    1039    1051    1067    1033    1115    1052
    1001    1113    1157    1188    1216    1151    1219    1316    1399    1512
    1726    2044    2521    3012    3458    3788    3890    3873    3656    3317
    3016    2794    2667    2654    2702    2710    2698    2567    2383    2208
    1939    1716    1562    1470    1327    1243    1203    1142    1106    1056
    1051    1056    1015    1084    1062    1069    1001    1029    1022    1052
     977     980    1037    1020    1047    1045     996     953     999     963
    1039     992     980    1051    1021    1052     997    1009     986     963
     963     993     993    1022     993     963     997     976     970     982
     994     960    1009    1015     966     986     993    1000    1001    1016
     973     975     993     969     994     964     945     989    1020     984
    1018     992    1003     991     968    1021    1001     957     953    1032
     996     984     982    1035     992     959     974     993    1003     978
     961     974    1017     993     999     981    1003     994     992     992
     974     971     982     985    1027    1000    1010     985     978    1003
    1038    1034    1012     964     958     979     968    1000    1027    1000
    1025    1038    1063    1014    1000     996    1030    1028    1089    1105
    1169    1244    1432    1600    1854    1896    1830    1856    1628    1443
    1351    1310    1300    1326    1351    1434    1489    1410    1259    1206
    1201    1152    1115    1088    1046    1018    1011    1028    1023    1030
    1002    1022    1022     981     959     981     964     952     979     957
     978     980     967     975     999     998     973    1011     987     972
    1003     980     996    1022     983     973     975     941    1028    1007
     983     970    1022     927     957    1016     954     932     985     980
     955     977    1005     997     950     950     994     958     974     998
     995     988     964     958     952     953     989     935     929     969
     972     989     973     987     996     988     978     954     938     958
     994     992     982     971     977     984     949     940     932     977
     950     947     960     916     969     967     933     988     965     959
     985     940     981     923    1002     966     982    1006     979     995
     978     984     945     972     981     953     989     958     941     957
     972    1000     965     964     980     990    1003     957     959     940
     954     969     955     943     983     965     959     966     941     968
     972     949     965     933     949     942     954    1057    1025     971
     931     931     930     924     976    1004     942     928     985     985
     913     990     973     975     910     997    1012     978     909     960
    1005     960     945     993     956    1001     992     991     953     958
     971     987     943     923     951     954     952     955     971     997
     992     958     993     964     945     941     934     968     953     968
    1002    1010    1020     975     952     985     994     958     975     971
     981     892     967     968     992    1005     909     998     937     945
     952     963     963     993     967    1064     993     974     981     978
     964     980    1003    1050    1038    1016    1003     998    1025    1047
    1029    1052    1073    1083    1126    1141    1120    1169    1217    1291
    1362    1457    1649    1874    2269    2880    3422    3788    4004    4015
    3720    3383    3035    2790    2575    2429    2373    2462    2604    2577
    2570    2456    2293    2056    1939    1665    1569    1344    1248    1168
    1159    1112    1106    1125    1018    1079    1027    1025    1016    1039
    1046    1034     990    1070    1101    1109    1091    1097    1097    1071
    1037    1015    1032    1045    1017    1007     996     994    1003     985
     958     979    1001     948     994    1028     995     999    1023    1021
    1029    1007    1029     983     991     995    1010    1053    1048    1033
    1003    1002     995     952     986    1000     928     994     950    1023
    1000     981     990     982     968     981     979     971     968     952
     982     984     975     967     981     971    1042    1017     953     991
     976     957     941     974     976     946     941    1004    1008     962
     979     962     960     979     996     922     919     987     967     930
     938     925     971     941     968     991     970     967     992     962
    1004     998     982     954     975     942     965     965     978    1019
     981     976     974     976     956     954    1004     996     980     975
     934     959     967     986     950     963     971     964     941     974
     966     975     987     984     975     975     998     997     981     957
     941     966     985     936     936     938     956     937     959     922
     962     933     958     987     927     975     919     986     998     984
     958     970     969     985     952     920     933     967     972     985
     971     959     944     997     964    1014    1015    1015     995     981
     939     916     918     939     965     978     933     954     978     971
     995    1004     977     974     978     929     949     972     951     946
     948     965     951     956     954     942     991     992     960     996
    1016    1042    1054    1106    1067    1080    1128    1112    1077     981
    1051     998    1038    1035    1030    1015    1026    1070    1076    1033
    1012    1066    1045    1038    1038    1085    1076    1097    1124    1138
    1183    1180    1179    1093    1137    1187    1150    1132    1132    1135
    1099    1065    1062    1050    1025    1009    1001     970     994     991
     971     936     981    1005     977     960     991     973     925     957
     961     968    1025     975     975     988     899     975    1027     959
     946    1002     936     975     975     968     982     975    1002     977
     964     948     921     959     992     936     956    1004    1009     998
    1028    1047    1036    1005    1028    1049    1011    1052    1046    1010
    1015    1019     983     973     984     988     974    1012     984     964
     977     977     986     983     992     961     917     987     965     977
     950     978     975    1012     993     957     969     952     980     930
     944     905     961     963     971     977     976     910     959     937
     976     989     956     995    1026     991     966     972     950     968
     965     991     974    1009     983     941     928     942     958     964
     974     939     970     976     980     976     990     953     979     944
     946     950     936     967     966     954     981     971     926     898
     985     967     973     931     936     940    1011    1016     918     950
     978     970    1000     978     958     987     926     928     988     964
     952     959     944     923     947     997     965     962     964     952
     986     969     952     951     977     969     980     996     989     940
     957     990     972     944     955     950     950     914     946     951
     919     978     963     898     981     954     976     955     971    1025
     977     962     992     939     875     948     986     963     956     920
     925     962     952     975     947     992     966     960     966     994
     938     909     943     937     989     989     999    1023    1017     981
     990     997     949     933     979     995     988     944     948     966
     960     964     957     905     962     990     969     951     924     926
     969     987     934     996     924    1000     966     934     976    1011
     921     929     918    1035     960     955     964     994    1012    1024
     984     983     964     971     958     996    1012     971     971     962
     944     959     961     930     948     998     914     888     923     967
     946     936     969     963     955     928     955     963     930     929
     953     957     946     961     977     990     977     930     959     987
     982     928    1004     987     924     982    1009    1023    1007     998
    1038    1135    1087    1029    1033    1059    1072    1008    1076    1070
    1195    1279    1286    1335    1287    1224    1162    1102    1148    1132
    1068    1044    1057    1090    1075    1073    1111    1142    1144    1114
    1061    1053    1006    1017    1010     989    1024     985     947     962
     971     969     950     958    1024     991    1039    1060    1102    1118
    1137    1152    1139    1134    1185    1138    1073    1054    1098    1085
    1027    1061    1013    1037    1054    1036    1062    1016    1036    1052
    1013     983     970     957     999     951     995     980     986     976
     977     997     981     964     988     977     940     934     913     989
    1012     964     945     979     968     958     937     954     957     981
    1014     992     955     968     969     990     965     994     932     965
     960     938     963     938     947     991     991     952     975     970
     927     936     951     935     941     982     964     970     946     964
     957     934     964     956     965     945     925     946     961     955
     936     943     967     996     978     938     951     960     929     958
     999     977     971     998     978     941     966     951     959     967
     978     969     967     938     945     960     937     937     980     925
     980     921     987    1009     990     951     974     986     962     938
     948     954     957    1009     987     973     946     963     940     941
     985     971     950     941     961     952     963     995    1009    1008
     975    1009    1033    1021     995     938     966    1007     992     979
     971     963     971     980     944     979     982     914     955     930
     938     991     984     934     949     972     957     992     949     944
     960     966     958     968    1015     955     982     991     973     937
     977     993     935     958     954     957     935     975     988     976
     971     978     957     956     968     971     963     987     994    1008
    1006    1002     985     953     970     959     981     980    1029    1001
    1019    1018     979     981     990     975     985     998    1015     999
     981    1028    1095    1015    1045    1058    1175    1208    1165    1322
    1366    1459    1496    1631    1610    1533    1535    1526    1351    1379
    1379    1414    1421    1405    1475    1408    1403    1376    1360    1356
    1365    1310    1271    1230    1116    1122    1132    1105    1133    1127
    1062    1072    1063    1043    1004    1021    1017    1007    1029    1005
     998    1054    1014     980     950     975     977     898    1051     996
     952    1014     981     942    1009    1012    1020     990     937     957
     965    1002     979     977     978    1030    1002     989     977    1013
     978     960    1001    1017    1005    1016    1015    1062    1085    1085
    1122    1184    1241    1273    1301    1287    1238    1207    1193    1185
    1120    1079    1113    1073    1091    1086    1148    1154    1131    1138
    1101    1096    1108    1113    1077    1071    1005     975     998    1021
    1012    1009     997     907     981     978    1002     982     981    1004
    1011     994     974     956     974     986    1015    1005     980     990
     997    1004     966     924     965    1000     984     971     966     962
     949     980    1005     993     950     987     975     962     976     942
     937     936     921     956     997     976     931     946     937     981
     957     898     919     962    1006     977     955     967     916     950
     972     974     960     980     917     934     916     965     971     983
     907     921     957     998     984     951     910     911     963     949
     942     956     968     985     966     952     940     948     979     998
     967     963     973     931     925     912     931     979     974     983
     979     897     950     965     953     948     961     962     975     926
     939     917     956     973     978     951     949     938    1010     969
     955    1006     986     993    1016     994     984     992     993     973
     982     970    1031    1034     998    1002    1021    1006     999     979
     974     974     952     971     997     951     920     942     945     944
     984     984    1002     971     968     936     982     978     972     946
     942     943     948     977     925     900     967     953     956     943
     955     946     950     945     963     993    1039     890     960     943
     879     954     973     958     947    1000     866     936     916     923
     933     907     923     931     924     921     913     915     943     957
     944     958     952     918     950     981     971     975     947     948
     919     936     940     933     936     922     920     993     960     946
     985     966     932     923     960     988     910     941     984     972
    1022    1008    1019    1075     970     954     998     953     977     983
     988     989     960     991     947     985     955     929     960     970
     976     962     971     971     939     964     950     916     954     950
     935     956     988     950     922     956     951     913     965    1000
     971     978     989     962     938     935     980    1002     982    1000
     957     965     962     989    1011     963     972     948     992     988
     984     995    1038    1071    1077    1106    1126    1167    1139    1147
    1160    1121    1170    1107    1071    1076    1065    1082    1029    1046
    1052    1036    1081    1056    1072    1086    1062    1077    1076    1039
    1045    1023     970     979    1008    1059    1063    1069    1118    1084
    1063    1132    1138    1141    1155    1208    1191    1157    1172    1115
    1064    1095    1053    1024    1045    1013    1025    1020     947     982
    1015     994     966     960     989    1009    1030     960     966     972
    1070    1054     968    1004     963     941     986     986     960     972
    1007                                                                        
