Co 880                                                                          
BANK       1    4941     494   CONST  1600.0     1.7     0.0     0.0         STD
     811     806     753     808     842     810     827     845     800     821
     806     842     848     836     817     777     848     805     801     819
     823     815     786     789     780     763     771     812     817     796
     803     810     827     836     808     791     820     835     811     812
     843     828     825     834     796     834     822     830     776     816
     762     806     828     820     772     847     842     767     805     838
     792     813     774     781     832     816     825     799     783     815
     842     800     819     853     842     811     792     810     796     807
     792     774     791     824     828     814     795     815     823     786
     793     808     805     827     815     777     784     807     779     791
     805     828     846     813     827     829     822     793     818     811
     801     835     840     861     752     835     752     797     860     849
     827     880     850     789     785     785     810     861     864     825
     825     786     799     802     785     773     819     838     831     803
     823     834     832     806     802     810     832     839     822     834
     840     829     852     849     884     858     818     818     831     810
     810     824     825     851     802     777     833     832     773     802
     797     818     907     783     852     814     785     851     848     764
     820     800     834     836     780     843     807     805     834     791
     794     848     860     850     827     844     806     834     832     827
     799     825     825     826     856     847     788     826     848     835
     842     831     835     840     842     837     805     794     825     804
     835     826     822     850     891     836     877     883     880     909
     868     978     946    1074    1103    1345    1479    1734    1728    1550
    1467    1389    1177    1064     985     948     953     875     865     843
     854     865     881     873     876     847     856     890     882     871
     879     867     848     840     858     856     829     824     837     840
     826     820     823     859     860     848     821     817     835     826
     838     855     886     844     875     882     836     867     867     842
     891     867     865     929     840     856     855     817     833     832
     825     861     885     832     823     870     870     846     809     840
     872     894     868     868     860     819     811     824     829     837
     845     845     849     834     835     827     857     876     848     845
     825     837     848     855     833     847     888     832     879     864
     878     859     865     901     846     869     861     882     819     871
     894    1005     967     977    1079    1140    1337    1502    1836    2399
    2889    3120    3139    2947    2541    2209    1853    1565    1290    1126
     989     931     931     888     875     887     909     925     902     886
     903     887     841     868     848     890     892     850     862     858
     858     872     829     856     834     847     849     845     849     893
     882     829     822     872     851     834     838     841     838     906
     834     872     858     891     816     867     845     848     851     885
     867     879     855     840     830     833     807     826     843     863
     852     854     866     858     856     870     856     880     869     855
     896     883     851     848     793     824     845     857     852     855
     854     852     883     855     884     845     907     810     873     869
     867     916     824     876     883     832     820     907     862     816
     899     892     908     864     846     831     866     841     921     878
     852     858     876     878     876     871     842     838     851     880
     840     837     855     857     879     858     873     880     874     890
     868     874     925     868     905     854     842     813     863     877
     847     836     855     855     881     889     900     864     870     885
     864     859     855     891     850     922     934     913     863     912
     900     855     853     890     875     847     897     860     821     883
     857     866     849     824     866     903     896     882     875     888
     903     864     836     839     865     874     860     878     877     901
     897     863     866     860     847     889     909     901     908     912
     892     869     884     894     848     881     913     934     886     896
     868     900     882     909     891     826     837     913     904     898
     871     919     911     939     887     885     864     867     876     877
     897     882     882     905     888     872     832     855     872     856
     884     905     894     881     850     927     879     862     872     877
     860     905     896     847     880     882     869     858     887     909
     900     872     838     871     889     900     859     837     895     869
     846     911     886     898     837     890     880     869     895     875
     868     873     864     854     869     895     856     819     871     905
     911     928     879     856     903     933     937     881     873     888
     871     898     907     919     913     911     891     879     888     863
     914     876     857     894     928     893     860     860     942     916
     878     928     908     917     863     877     857     856     901     930
     862     886     956     934     884     869     879     874     862     893
     914     889     887     897     886     863     892     904     912     884
     860     868     911     892     883     894     866     872     848     862
     909     889     894     879     845     856     877     886     910     961
     880     865     896     939     868     857     923     888     913     894
     890     933     907     907     878     926     916     893     917     945
     904     886     952     963     920     923     932     927     913     928
     950     917     910     897     914     918     913     914     919     917
     913     926     941     931     899     882     868     912     940     941
     922     939     927     918     924     938     923     918     896     944
     903     892     962     923     929     889     957     952     935     944
     900     843     966     990     951     965     977     950     955     970
     933     924     934     950     921     911     883     929     930     915
     957     947     965     961     948     945     942     930     938     917
     936     938     915     932     948     965     939     953     959     942
     917     911     957     911     933     965     966     930     926     976
     960     929     929     965     917     871     903     976     906     933
     950     933     925     905     920     954     912     903     966     925
     955    1001     971     913     918     974     971     965     955     947
     940     975     974     976     969     932     952     977     944     953
     966     984     958     944     964     933     919     952     976     949
     928     955     959     933     938     988    1003     969     979     962
     950     951     961     982     969     979     934     935     988     965
     927     970     937     975     982     982     914     969     994     920
     936     972     938     910     923     983     960     935     956     963
     979     996     985     941     959     983     978     955     938     952
     955     954     956     960     951     962    1005     983     966     975
     968     962     968     979     950     896     946     901     972     983
    1007    1077     994    1032    1007     997    1011    1007    1025    1010
    1142    1267    1414    1675    2007    2528    2901    2956    2859    2534
    2239    1999    1748    1540    1388    1284    1176    1099    1062    1052
    1070    1062    1029    1033    1052    1024    1008    1007     988    1020
    1039    1006     999    1015    1021     982    1008     991    1039    1058
     986    1042    1002     999     979     949     952    1028    1005    1038
    1030     998    1007    1004     983    1002    1047    1005     969     997
    1045     984     980     997    1036     977     994     991     959     971
     988     982     945     959     973    1000     967     975    1004     996
    1011    1007     982     968     985    1020    1011    1008     996     992
     977     989     974     971     970     972    1013     989    1032    1008
     981     933     943     997     967     978     901     984    1019     949
     951     987     949    1018     993     993     985     995    1022     975
     939     938     964     941     966     942     978    1000     934     986
    1009     978     996     980     977     973    1003     983     982     983
     986     993     987    1015     988     946     989     979     965     946
     938     986     967     974     949     977     967     997     978     997
     954     962     962     973     969     993     996     974     968    1016
    1038     927     951     969    1015     971    1012     984     988    1000
     971     963     958     983     994    1017    1004    1009     975     975
     992     990     984     985     968     989     973    1011    1000     988
    1060    1059    1074    1136    1189    1195    1218    1345    1482    1794
    2206    3043    4043    5046    5659    5442    5208    4846    4655    4254
    3865    3072    2424    1954    1700    1449    1310    1211    1092    1086
    1006    1083    1047    1011     997    1014    1016     972     996    1017
     946     943     973     964    1002    1001     988     962     962     983
     991     964     995     964     946     986     974     956     974     985
    1011    1011    1010     976     968     945     935     988     971     929
     938     948     943     971     997     960     942     985     977     968
     948     947     992     966     914     959     982     958     966     992
     980     960     905     936     942    1004     992    1028    1019     971
     914     932     967     962     946     941     957     955     983     966
     952     947     950     972    1004     997     985     983     989    1017
    1067    1089    1165    1300    1314    1348    1320    1267    1172    1138
    1134    1123    1061    1031    1017    1156    1063    1226    1142    1156
    1213    1198    1174    1282    1330    1518    1581    1880    2383    3140
    4295    5489    6685    7023    6456    5728    4863    4182    3514    2834
    2333    1961    1702    1546    1411    1354    1317    1279    1234    1227
    1202    1149    1138    1136    1097    1072    1066    1048    1088    1109
    1089    1131    1115    1069    1068    1059    1058    1073    1074    1064
    1043    1051    1045    1045    1078    1085    1065    1060    1051    1070
     991    1017    1066    1059    1021    1025    1050    1042    1046    1096
    1055    1067    1051    1099    1033    1011     999    1038    1063    1077
    1008     995    1004    1011    1033    1034    1020    1006    1013    1025
    1043    1057    1061    1058    1004     993    1022    1012    1017    1040
    1058    1071    1076    1107    1084    1062    1068    1067    1094    1012
    1019    1023    1006    1107    1078    1112    1175    1172    1282    1286
    1262    1200    1134    1200    1099    1075    1048    1074    1056    1015
    1014     978    1025    1014    1038    1078    1086    1052    1016    1055
    1087    1041    1027    1044    1045    1008    1033    1044    1046    1064
    1048    1024    1010    1005    1012    1003    1014    1097    1062    1015
    1002    1034     985    1036     999    1018    1000     975    1003    1014
     974    1038     990    1022    1035     984    1037    1022    1017    1040
     989     972    1000     999    1045    1027     989    1023    1005    1002
    1028    1005     999    1034    1006     997     988    1030    1026    1002
     994    1013     999    1017     995     989    1013    1012    1004    1006
    1029    1023    1041    1022    1026    1049     992    1038    1073    1060
    1033    1033    1085    1153    1210    1305    1436    1613    1757    1800
    1904    1697    1702    1630    1668    1541    1460    1319    1297    1191
    1206    1169    1215    1195    1237    1289    1315    1385    1436    1536
    1603    1698    1935    2224    2686    3630    5087    7344   10422   13311
   15047   15086   14009   12802   12217   11869   10890    9197    7260    5632
    4452    3576    2902    2382    1952    1615    1471    1381    1335    1323
    1231    1202    1207    1143    1075    1111    1099    1074    1002    1093
    1028    1008    1089    1066    1083    1004     978    1020    1082     991
     997    1015    1032    1001    1017    1021     999    1055    1030    1005
    1039    1048    1009     978     979     979     975    1032    1076    1037
     990     969     992     987     971     993     956     973    1007     994
    1012     992    1005    1038    1029    1053    1039     978    1004    1021
    1011     985    1007    1066    1177    1257    1320    1405    1581    1695
    1788    1795    1634    1476    1484    1337    1283    1173    1100    1094
    1090    1077    1082    1112    1065    1062    1060    1026    1037    1043
    1069    1076    1093    1146    1273    1395    1578    1769    1950    2004
    1874    1818    1779    1750    1702    1617    1504    1382    1318    1192
    1102    1101    1040    1044    1035     985    1017    1028    1022     998
     986    1004    1011     962     945     999     957     994    1039     995
     974    1045     995     955     968     990    1015     969     950    1022
     984     939     988     981     974     928     923    1006    1031    1007
     958     982     992     975     994     965     943     953    1003     989
     942     961    1006     968     957     979    1022    1006    1037    1012
     982    1001     976     958    1023     987     938     994    1031     988
    1014     949     956    1004    1021     976     997     983    1008     993
     955     963     981    1015    1019    1003     998    1014     990     995
     977     994     951     985     981     982     982    1005     987     996
     998    1019    1017    1045    1042    1044    1046    1051    1043    1076
    1115    1145    1212    1310    1542    1757    1932    2211    2236    2227
    2128    1976    1831    1665    1530    1400    1325    1237    1121    1117
    1103    1087    1082     996    1011    1005    1010    1006     989    1003
     980     976    1030    1000    1011     997     955     982    1005     973
     974     981     971     983     975     929     953     978    1001     997
     970     965     972     980     960     931     950     993     997     990
     979     995     981     968    1000     973     996    1017     984     937
     928     928     985     952     967     998     978     994     951     996
    1021     987     993     928    1013     978     961     956     944     950
     979     936     951    1005     956     990     952     997     963     974
     954     943     970     977     943     945     949     988    1007     961
     979     961     939     957     967     947     942     960     933     941
     958     922     993    1016    1015    1022    1049    1068     985    1078
    1006    1034    1141    1285    1401    1551    1785    2000    2283    2332
    2199    2112    1896    1948    1880    1848    1730    1599    1444    1301
    1196    1114    1096    1030     981     982    1014    1026     977     995
     974     973     952     944     992     962     960     970     969     998
     962     934     972     980     977     991     987    1002     968     955
     982     992     984     952     934     969     975     932     960     979
     974     968     889     950    1005    1023    1001     929     966     892
     992    1012     949     945     949     978     958     978     941     970
     984     979     953     947     970     936     958     970     969     989
     977     946     965     962     958     976     967     971     971     979
     970     956     932     952     954     909     929     959     926     964
     921     936     965     991     993     982     989     929     962     980
     988     955     968     932     926     954     983     903     948     950
     947     954     972     977     927     942     915     934     947     961
     968     973     938     964    1005     977     956    1000    1009    1006
     982     958     945     934     984     994     955     979     972     957
     984    1011     984    1058    1070    1037    1017     991    1012    1022
    1053    1051    1109    1099    1097    1123    1114    1173    1186    1290
    1386    1599    1885    2223    2807    3320    3572    3658    3562    3279
    3110    2990    2985    2804    2577    2427    2150    1901    1711    1543
    1423    1329    1227    1127    1089    1082    1037    1033    1025    1042
    1042    1027    1017    1014    1042    1024    1002     991    1024    1011
     991    1037    1000     994     991    1035    1012     973    1016     973
     951     977     977     981     976     991     948     988    1014    1012
     992     961    1018    1030    1026    1003    1013     970     945     982
     993     998    1078    1012    1000     999     997    1003    1019     994
     994     997    1008    1047    1039    1000    1011    1002    1001    1006
     986     974     974     977    1004     980     991     962     963     959
     996     999    1012     977    1002    1001    1016     986     996     965
    1014     952     990     983    1037     945     989     953     981     990
     940    1076     970    1012    1030    1023    1007     977    1007     988
    1019    1000     973    1019     977     963     983     956     966     981
     959     989    1011    1023     988     957     988     988     988     989
    1008    1047    1024    1014    1008     988    1004    1005    1003    1009
     990    1014     973     997     991     970     993    1003    1005     966
    1023     987     979     962     960    1014     901     990     995     970
     938     962     972    1007     994     978    1008     989     999     945
     978     968     978     946     974     970     990     985     969     961
     967    1004     983     946     934     960    1014    1012    1001     987
     968     973     983    1008     981     971     978     958     986     997
     968    1000     982     976     981    1031     991     964     959     967
    1051     949     954     989    1015    1018     914     953     997     953
     957    1012    1006     962     976    1004     964     991     932     949
     991     955     929     948     954     917     933     973     981     967
     958     968     993     994     990    1006     998     971    1002    1003
     966     969     988     953     975     964     953     973     978     996
     987     940     972     941     956     962     926     929     947     991
     944     954     990     977    1030     933     921     961     965     948
    1005     915     943     988     976     986     990     967     940     940
     950     991     933     978    1033     990     958     985     963     958
     984     973     973     987     984     946     955     970     970     969
     980     977     965     972     961     980     946     945     939     976
     966     955     979     950     972     998    1000     987     944     946
     961     922    1010     979     978     916     952     978     939     956
     944     976     973     992     987    1009    1020     982    1037    1080
    1061    1130    1176    1225    1290    1309    1286    1264    1224    1198
    1146    1135    1129    1071    1026    1033     998     999     985     988
     991    1035     995     945     973    1020    1014     998     966    1011
     982     935     967     940    1015    1033    1011     910     983     979
     916     932    1002     977     936     926     984     942     955     922
     977     987     950    1008     988     998     990     967     957     958
     931     923     951     991    1001     959     946     930     962     964
     934     942     972     973     962     956     930     938     922     977
     999     956     986     984     970     997     955     976     977     935
     951     977     951    1002     969     957     992     994     935     976
     963     942     923     971     948     927     957     960     960     956
     962     982    1002     929     946     955     985     937     945     950
     994     992     977     937     935     979    1019     974     957     986
     958     956     956     987     949     949     982     952     957     964
     944     944     980     932     971     964     987    1012    1036    1020
     993     967    1028    1045     877     969     962    1013    1011    1004
     951     965     942     930     939     921     966     958     954     939
    1045    1038    1000     976     999     974     952     956     967     956
     976     988     995     956     957     968     944     952     954     952
     939     942     946     942     970     970     955     955     946     972
    1033    1017    1021    1030     993     995     972    1007     998     951
     990    1029     975    1008    1028     994    1006    1018    1033     988
     992     980    1016    1002    1107    1082    1061    1123    1158    1163
    1213    1315    1475    1641    1886    2218    2378    2412    2400    2299
    2180    2054    1893    1753    1582    1482    1388    1269    1237    1209
    1158    1151    1131    1140    1095    1038    1041    1052     989    1044
    1055    1051    1017    1022     962    1026     962    1009    1071     999
     963     977    1056    1021    1014     952     975     990     989     996
    1027    1003    1009    1023     988    1018    1012    1019     996     991
     962     975     985     988     989    1009    1009     988     994    1012
    1003     975     966     960     952     932     987    1010    1035    1005
    1002     993    1011     998     966     977     995     964     972     956
     991     986     997     992    1017     992     937     983     993     984
     989     963    1032    1022     942     989     963    1027    1014     957
    1039     969     973    1021    1003    1009    1002    1027    1005    1013
    1002    1018    1003    1036    1048    1088    1147    1163    1215    1270
    1288    1283    1284    1238    1265    1200    1157    1168    1125    1094
    1085    1026    1036    1004     988     963    1014    1026    1015    1021
     977    1005     997     991     958     942     962    1012    1035     994
    1004    1013    1006    1023    1029    1050     991    1057    1112    1190
    1279    1330    1470    1691    1836    1903    1807    1718    1653    1556
    1491    1490    1484    1464    1483    1432    1373    1316    1209    1193
    1156    1079    1086    1062    1050    1052    1013    1052    1007     933
     944     988     933     958     937     968     978     977     981     991
     976     946     959     987     984     955     976     991     986     996
     996     955     971     963     986    1001    1016     987     982    1005
     958     984     979     975     983    1045    1049    1008     994     996
     961    1008    1047     994     962     978    1014     976     979    1013
    1030    1009    1008     968     985     948     984     961     963     993
    1001     963    1040     974     947     948     933     955     976     970
     994     982    1016    1079    1018     982    1038     992    1031     946
     956     984     964    1003     967     994     986     972     984     992
     927     937     976    1009    1019    1013    1030    1013     979     983
    1003    1000     980     986    1010     997    1006     963     969     999
     965     990     988     997    1045    1023    1008    1030    1008     992
     963     957     954     969    1017     986     968     934    1010     985
    1010     981     968    1005     974    1025    1017    1005    1036    1034
    1012     983    1011    1015    1026     999    1051    1000     947    1015
    1038    1032    1040    1060    1062    1064    1027    1012    1019    1042
    1046    1061    1096    1089    1065    1089    1122    1162    1152    1232
    1284    1369    1591    1817    2025    2312    2480    2601    2545    2390
    2282    2101    1909    1810    1717    1598    1438    1406    1355    1241
    1206    1195    1210    1158    1149    1115    1046    1046    1101    1066
    1061     997    1063    1017    1014    1023     985     995     992    1039
    1003    1023    1052    1023    1049    1050    1039    1045    1090    1135
    1128    1114    1105    1094    1091    1158    1165    1164    1145    1169
    1251    1272    1322    1410    1597    1835    2020    2559    3096    3680
    4418    4631    4572    4304    3792    3534    3327    3079    3172    3060
    3079    3079    3024    2804    2544    2254    2022    1818    1652    1467
    1363    1223    1207    1203    1137    1078    1050    1038    1061    1063
    1035    1075    1068    1030    1031    1014    1022    1027    1054    1010
    1024    1046    1051    1049    1019    1030    1006    1010     991     960
    1019     978    1031    1024     972    1034     970     969     999     980
     953     949    1038    1031     933     980     974     984     995    1026
    1054     990    1014     983     992    1030    1000     976     967    1023
    1001    1014    1048    1024    1021    1008     998     991     977     974
     965    1003    1033     998     981     996     989     998    1001     975
     985     997    1009     965     969     970     961     990     999     951
    1025    1004     987    1019     928    1030     997    1004     981     984
    1003    1003     994     938    1010    1005     985    1000     969    1018
     992     976    1038    1055    1017    1033    1025    1044    1063    1145
    1285    1385    1503    1607    1638    1628    1602    1548    1477    1390
    1330    1331    1373    1402    1356    1384    1334    1263    1256    1216
    1133    1116    1102    1035    1024     990     972    1033    1011    1012
    1026    1021     952     987    1010     991     999     974     959     977
    1003    1038     979     949    1003    1007     978     992     967    1006
    1026     997     942     959    1015     950     943     952     942     923
     968     963     964     961     957     978     990     981    1011     985
     947    1003    1018     967     976     960     980     998     927     967
     942     953    1028     993    1023     989     935     987     940     954
    1042     971    1019     995     959     976     980    1009     937     990
    1022    1012     956    1005     927     988    1004     973     902     946
     987     943     968     970     974     952     947     969     994    1018
    1002     968     931     959     996    1001    1015     964     955     984
     993     956     965     963     982     974     961     946     969     939
     986     938     981     945     976     935     958     986     921    1020
    1013     953     992     969     929     950     943     982     989     963
     937     997     960     969     940     970     930     964     979     944
     943     965    1007     960     952     943     995    1004     998     970
     955     932     936     962     988     962     982     995     991     978
     945     965     998    1025    1005    1019    1012     949     929     965
     987     963     985     966     975     974     950     906     975     944
    1015     954    1036     962    1005     973     981     973     932     920
     961     917     973    1000     977     979     948     986     988     992
     972     991     986     964     979    1008     985     988     936     924
     966     975     936     926     947     974    1005     985     958    1023
    1010     994     969     962     932     993    1030     980     952    1002
     982     991     973    1037    1006    1058    1080    1074    1041    1050
    1030    1019    1031    1087    1103    1160    1137    1138    1204    1241
    1307    1387    1580    1708    1940    2418    3009    3619    4303    4691
    4702    4400    3968    3540    3111    2870    2706    2605    2757    2915
    2938    2978    2907    2686    2399    2122    1964    1757    1547    1424
    1357    1256    1186    1167    1132    1171    1139    1160    1165    1135
    1120    1101    1068    1070    1048    1058    1055    1023    1049     990
    1028    1008     970    1046     971    1004    1015     961    1000     988
    1048     990     974     976     987     966    1035    1029    1030    1030
     983    1022    1058    1006    1013    1035    1041    1050    1031    1015
    1080    1093    1050    1054    1044    1037    1005     986     942     994
     991     983     962     957    1006    1000    1076     987     990    1004
     944     989     976     962     885     972     995     994     897     984
    1001    1023    1032     975     957     913     961     965     996     960
     944     983     969     967     965     985     969     955     969     982
     959     982     962     942     973     965     982    1003     993     976
     992     975     993     985     994     979     955     989     992    1010
     986     995     986     988     964     990     989     995     945     986
     981     957     947     969     983     978     923     917     953     982
    1013     974    1004     983     932     934     948     972     947     998
    1006     953     930     947     962     984     974     975     991     961
     954    1009     995     947     973    1001     978     974     963     959
     981     963     988     966     983     942     930    1013     989    1017
     961     996    1000     986     940    1024    1025     941     978    1007
     999     941     934     960     893     905     952     966     950     991
     975     963     945     943     967     987     999     996     972     984
     984     977     958     980     998    1004    1002     984    1009    1001
    1003     995     996    1031    1016    1020     987    1014    1083    1105
    1126    1137    1127    1046    1086    1098    1107    1086    1039    1081
    1051    1076    1039    1096    1107    1117    1104    1054    1139    1180
    1189    1171    1201    1243    1368    1312    1282    1278    1209    1148
    1131    1101    1094    1111    1083    1092    1099    1081    1029    1025
    1010     995     988     981     982     957     977     972     943     968
     981     979     991     993     979     964     951     997     940     964
     954     982    1007     968    1003     986     937     964     991     998
     986     952     961    1003    1009     983     978     992    1030     941
    1034     986     923    1055     962     985    1007    1041    1036    1060
    1048    1046    1115    1072    1036    1021    1036    1041    1009     986
     971    1018    1029    1010    1014    1044    1015     994     981     959
     989    1003     996    1016    1031     985     975     993     995     996
    1001    1024     964    1024     999     981    1010     969     936     923
     956     950     980     977     961     967     935     961     960     952
    1055    1005     980     987     996     942     935     946    1019    1017
     969     976    1002     990     971     975     942     949     949     986
     974     984     954     936     974    1002    1006     963     949     964
     953     994    1016     973     979     976     973    1012    1044     987
     993     953     946     973     966     980     983     956     998     973
     963     923     945     958     997     995     981     930     978     970
    1006    1014     954     953     945     942     984     944     937     958
    1012    1032     997     989     985     968    1009     988     930     917
     950     973     977     973     979     989     944     954     931     949
     937     952     954     961    1001     967     993     964     976     977
     980    1027     972     985    1008     963     948     948     979     947
    1000     997     964     952     983     977     993     981     953     942
     928     960     984     967     979     958     949     990     986     992
     952     975     977     971     937     968     961     948     950     937
     971     982     955     935     933     979     973     934     921     946
     944     913     942     958     943     965     960     942     920     920
     983     929     981     994     939     944     947     985     961     979
     994     933     983     997     969     936     975    1007     931    1006
     946     956     971    1002     975     996     981     966     988     995
    1000     971     969     970    1016     976     952     956     956     986
     979     995    1038    1006     952     948    1000     995     995     997
    1024    1002    1051    1031    1045    1030    1056    1103    1168    1214
    1241    1283    1346    1335    1335    1311    1246    1239    1152    1126
    1165    1165    1184    1091    1148    1161    1140    1154    1104    1108
    1118    1074    1061    1031    1008    1017    1024    1001     982     991
     980     950     972     974     968    1016     975     955     990     981
     953    1000    1010    1012    1026    1023    1055    1030    1068    1120
    1159    1249    1270    1228    1253    1248    1147    1163    1078    1130
    1091    1109    1092    1055    1108    1182    1099    1108    1155    1129
    1079    1039    1050    1048    1009    1015     999     988     989    1010
     957     989     992     972     974     942     939     953     973     983
     973     964     974     996     989     957     934     974    1002     942
     970    1010     936     927     932     921     956     962     944     949
     983     975    1015     977     978     960    1004     914     918     977
     960     977     936    1003     960     939     979     917     916     937
     992     914     969    1019     959     987     973     950    1000     976
     970    1005     979     975     980     951     939     943     947    1009
    1009     953     945     953     966     950     920     910     941     972
     982     978     975     952     955    1006     995     977     952     987
     944     964    1010     944    1022     999    1029     949     944     968
    1015     955     923     958     942     999     956     976     952     951
     944     982     997     953     968     968     998    1000    1007    1025
    1050    1005    1015    1071    1066    1050    1032    1033    1020    1013
    1009     982     972    1007     997    1022    1041    1022     979     982
     965     992     987     992     967     978     975     998     984     963
     978     989    1023     977    1047     986     970     983     950     996
     985    1008     958    1011     987     987    1027    1042    1027     971
     992    1002     989    1051    1005     999     963    1017    1011     996
    1017     994     972     984    1000     987    1033    1039     996     993
    1003    1014    1018    1024     997     965    1025    1065    1014     973
     966     984    1003    1019    1037    1054    1071    1097    1096    1076
    1145    1178    1290    1314    1468    1611    1854    1900    1922    1923
    1949    1821    1758    1690    1526    1399    1319    1320    1373    1370
    1357    1442    1510    1469    1490    1463    1387    1335    1247    1230
    1238    1161    1102    1086    1078    1070    1086    1064    1033    1072
    1082    1045    1026    1005     964     973     999    1032    1021     982
    1002    1026     990     969    1009     957     965     977     949    1038
     996    1023     952    1009     965     990    1025     971     999    1031
    1058     949    1043     958     975     981    1000     995     981     998
    1013    1022    1041    1056    1102    1097    1142    1215    1261    1309
    1355    1390    1373    1327    1298    1287    1273    1207    1134    1113
    1157    1136    1151    1176    1138    1169    1204    1197    1209    1177
    1140    1124    1122    1096    1051    1037    1000    1025    1011    1033
    1015     984     956    1017     953    1007     995     971     929    1000
    1014     939     941     963    1005    1007     979     990     957     980
     999     990     974     950     945     966     993     967     979     979
     966     959     943     954     965     962     985    1002     959     929
     992     982     957     969     980     960     968     942     948     995
     997    1029     927    1004     950    1018     921     929     967     933
     944     899    1026     987     973    1000     968     952     965     980
     979     967     991     960     940     923     958     987     985     979
     958     983     980     964     937     927     979     988     974     983
     967     965     985     948     976     972     944     941     963     984
     998    1011     987     970    1002     988     940     954     945     943
     992     991     979     948    1016    1003     998     968    1017     998
     953    1008    1006     970     995    1007    1022     955     950     992
    1031    1043    1035    1060    1081    1079    1062    1010    1057    1078
    1069    1033    1011    1006    1036    1023     987     971     974     989
    1009    1022    1025     959     958     946     920     938     932     972
     970     972     982    1034     978     954     959    1061     988     976
     946     899     878     933     982     963     992    1007     917     992
     973     934     954     966     974    1018     965     946    1007     991
     973     980     966     966     948     960     958     979     990     989
    1021     973     967    1012     980     959     954     966    1001     980
     961     978     981     940    1004     996     991     987     971     988
     988     941     998    1006    1008    1026    1009     971    1002    1019
    1005    1040     970     967     984    1000     954     981     986     970
     937    1019    1001    1004     991     980     964     967     943     991
     988     981    1032     999     995     982     972     971     979     984
     978     973     953     984     962     990    1004    1015    1011    1000
     970     964     972     996     994     994    1010    1039     964     908
     989    1005     987     983    1022    1029     969    1025    1053    1070
     995     985     994    1015     947    1002    1033    1067    1127    1124
    1214    1192    1233    1276    1186    1191    1184    1184    1122    1092
    1074                                                                        
