Co 880                                                                          
BANK       1    4941     494   CONST  1600.0     1.7     0.0     0.0         STD
     886     843     892     870     895     884     818     811     881     834
     871     874     850     889     873     894     901     882     918     903
     867     869     850     871     886     894     887     872     882     852
     832     853     837     830     848     852     837     853     868     849
     872     882     882     872     837     877     863     846     832     816
     904     867     842     904     840     860     884     887     899     831
     847     780     883     900     860     813     863     843     848     867
     871     867     840     891     883     840     850     838     882     861
     813     807     830     853     860     883     891     885     896     911
     859     846     857     854     871     860     826     869     865     850
     832     846     845     860     831     825     858     852     882     830
     858     880     816     854     782     835     871     834     878     891
     813     864     883     842     872     886     874     898     823     822
     867     868     849     862     869     832     819     817     844     887
     860     868     869     874     860     841     885     885     884     878
     893     893     870     870     868     821     870     877     858     824
     828     860     858     869     879     889     882     899     849     895
     862     846     895     850     908     872     882     879     817     878
     845     839     866     885     851     836     901     853     869     877
     881     842     865     851     858     827     850     879     846     874
     907     846     861     883     853     859     862     858     854     850
     849     833     844     856     870     900     901     918     940     926
     887     978    1024    1064    1081    1191    1389    1619    1978    1853
    1691    1412    1160    1017     990    1008     931     949     903     957
     916     918     907     920     885     882     933     946     891     910
     935     907     913     890     897     878     896     921     913     901
     894     913     890     872     908     889     901     894     859     861
     880     858     918     896     881     848     883     850     917     951
     918     911     866     899     882     899     902     874     915     835
     837     882     881     877     907     872     872     869     865     869
     914     879     899     875     872     892     860     860     893     895
     906     894     905     867     861     865     890     869     861     881
     867     882     908     896     889     914     904     894     904     910
     893     863     905     910     950     912     877     916     896     959
     897     965    1062    1100    1162    1324    1489    1782    2323    2905
    3350    3476    3180    2587    2048    1662    1275    1087    1012     979
     966     928     928     909     934     923     956     944     894     865
     876     905     867     856     871     887     924     915     866     883
     929     905     911     890     888     874     869     854     889     878
     916     891     882     923     907     885     886     848     915     894
     798     859     922     868     846     850     892     887     886     848
     919     900     870     874     923     900     905     879     896     899
     906     918     867     863     910     910     872     928     902     879
     910     886     881     889     895     878     905     925     902     881
     877     861     827     838     842     880     902     886     916     892
     932     914     889     907     866     911     906     910     891     886
     843     908     918     897     917     929     906     899     907     882
     905     894     912     886     899     864     927     878     873     899
     881     873     867     866     893     905     874     890     912     930
     906     896     893     887     889     910     879     891     863     861
     887     913     934     947     881     849     842     901     932     894
     937     898     877     884     949     906     882     911     935     871
     853     873     894     865     904     901     885     910     912     976
     879     873     886     899     887     900     852     930     935     926
     879     905     899     882     902     881     863     919     905     880
     915     907     881     905     908     897     924     924     899     898
     895     887     895     901     894     914     923     909     882     901
     936     934     936     882     870     905     911     946     884     941
     829     916     906     886     877     904     902     934     902     918
     937     877     863     903     915     950     966     934     955     947
     930     890     891     904     919     931     929     940     934     905
     875     907     898     884     923     900     903     926     960     935
     893     933     948     930     920     953     889     875     908     885
     966     872     900     914     919     864     886     925     950     904
     902     876     866     935     865     914     941     931     864     906
     898     894     919     933     924     942     943     913     914     965
     944     938     938     883     906     925     886     875     896     917
     892     888     900     897     878     941     942     945     959     941
     935     889     923     899     884     898     886     985     970     914
     928     932     850     918     933     930     833     920     945     920
     958     922     915     921     908     894     920     927     926     913
     946     957     923     907     915     928     953     957     954     934
     919     907     908     924     929     910     897     926     908     910
     930     893     944     952     936     970     940     940     942     943
     952     940     915     919     947     932     924     948     895     946
     958     988     961     948     959     903     972     989     938    1000
     889     940     927     974     909     927     912     962    1007     965
     938     925     934     923     938     951     956     936     923     925
     962    1004     954     922     910     915     973    1013     965     981
     958     922     937     945     975     956     966     961     963     900
     945     919     982     994     974     934     950    1022     941     974
     962     938     989     958     979     975    1007     989     941     992
     995    1000     989    1008    1009     973     949    1026    1002     983
    1029    1017     998     979     974     988     994     965     978     986
     949     953     997     969     963     966     987     974     939     981
     977    1000     983     974    1011    1001    1039     999     988     996
     977    1020     941     967     981     993    1005     970     968    1019
     949     919     983    1055     998     961    1029    1010    1002    1059
    1035     983    1018     987    1011    1022    1021    1020    1053    1037
     979     987     978     947    1013    1037    1023    1024     999     988
    1002     996     976     948     985    1002     999     972     998     970
    1027    1022     994    1019    1028    1014    1053     974     954    1000
     997    1041    1043    1020     989     973    1059    1048     950     992
    1020    1011    1022     964    1000     973    1013    1015    1040    1039
    1056     991     969     977     989    1017    1019    1021     986     983
    1047    1024    1015    1038     996     991    1034    1020     988    1012
    1021    1043    1073    1053    1092    1111    1127    1103    1130    1148
    1127    1146    1247    1373    1513    1865    2372    2958    3463    3694
    3188    2663    2069    1742    1469    1402    1252    1234    1209    1172
    1159    1130    1090    1102    1132    1104    1130    1074    1060    1051
    1033    1052    1061    1036    1039    1029    1093    1106    1050    1038
    1066    1072    1071    1057    1095    1057    1033    1049    1087    1099
    1080    1076    1068    1072    1122    1077    1054    1060    1032    1042
    1024    1016    1032    1110    1072    1067    1056    1083    1038    1058
    1037    1060    1041    1054    1017    1051    1073    1099    1015    1067
    1089    1015    1029    1044    1061    1050    1087    1104    1053    1054
    1067    1062    1039    1070    1055    1013    1067    1077    1052    1051
    1032    1033    1051    1041    1066    1073    1065    1055    1036    1084
    1046    1021    1022    1023    1034    1092    1062    1087    1038    1063
    1007    1058    1088    1001    1034    1007    1040    1064    1049    1053
    1113    1030    1040    1074    1016    1022    1084    1057    1060    1057
    1064    1013    1044    1060    1056    1039    1056    1083    1045    1036
    1065    1067    1043    1014    1004    1040    1022    1028    1042    1026
    1059    1068    1069    1068    1051    1030    1042    1044    1037    1051
    1077    1097    1061    1054    1087    1105    1030    1020    1019    1038
    1066    1060    1099    1089    1053    1046    1088    1095    1074    1034
    1079    1030    1045    1113    1113    1043    1040    1065    1116    1127
    1165    1154    1237    1268    1326    1316    1406    1581    1900    2399
    3158    4335    5724    6707    6942    6175    5113    4583    4355    3893
    3048    2211    1675    1462    1301    1224    1222    1196    1203    1176
    1137    1094    1121    1073    1078    1094    1047    1035    1050    1048
    1051    1013    1071    1003    1086    1067    1039    1042    1024    1083
    1087    1025    1038    1040    1079    1126    1120    1079    1023    1031
    1060    1046    1048    1023    1026    1100    1111    1072    1037    1041
    1053    1040    1033    1031     992    1019    1057    1054    1076    1056
     997    1028    1050    1022     972    1013    1022    1028    1031    1015
    1057     996    1074    1070    1009    1038    1023    1061    1027    1091
    1075    1055    1069    1053    1047    1069    1012    1040    1060    1019
    1006    1015    1034    1014    1044    1041    1038    1043    1100    1081
    1103    1098    1120    1081    1072    1080    1064    1073    1115    1161
    1132    1145    1217    1266    1280    1310    1299    1312    1320    1331
    1353    1476    1623    1750    2061    2514    3263    4598    6095    7811
    9085    8900    7521    5417    4058    3200    2661    2195    1859    1718
    1519    1518    1422    1375    1355    1326    1306    1240    1247    1266
    1214    1212    1177    1134    1189    1185    1108    1153    1160    1143
    1196    1199    1183    1176    1154    1168    1175    1154    1156    1165
    1147    1152    1141    1126    1112    1117    1164    1170    1158    1145
    1186    1163    1159    1148    1193    1136    1141    1147    1202    1165
    1183    1170    1099    1065    1104    1123    1129    1139    1151    1053
    1162    1105    1140    1069    1093    1109    1057    1066    1145    1125
    1052    1109    1097    1078    1168    1085    1110    1117    1111    1108
    1117    1100    1131    1122    1147    1150    1135    1157    1161    1168
    1104    1201    1307    1360    1477    1489    1384    1282    1245    1258
    1143    1097    1114    1170    1114    1114    1135    1125    1143    1121
    1168    1090    1099    1105    1108    1166    1086    1103    1091    1068
    1079    1114    1067    1097    1110    1096    1135    1112    1157    1107
    1083    1089    1089    1131    1171    1085    1111    1121    1116    1071
    1090    1114    1131    1099    1097    1082    1085    1116    1112    1118
    1128    1134    1100    1102    1131    1115    1103    1057    1061    1066
    1067    1073    1044    1099    1121    1077    1094    1105    1142    1118
    1083    1100    1069    1046    1096    1132    1118    1091    1093    1114
    1099    1053    1145    1123    1119    1073    1094    1089    1124    1136
    1092    1085    1113    1140    1096    1083    1091    1131    1130    1106
    1119    1129    1115    1143    1186    1175    1158    1165    1133    1117
    1138    1183    1242    1224    1221    1264    1266    1261    1328    1373
    1532    1630    1633    1775    1845    1885    2106    2459    3057    3922
    5383    7911   11501   15891   19434   20836   18883   14559   12182   11492
   11563   10567    8424    5679    3645    2714    2269    1934    1795    1635
    1558    1468    1385    1349    1322    1344    1334    1274    1220    1239
    1226    1158    1161    1172    1177    1174    1148    1152    1156    1113
    1098    1165    1099    1112    1079    1121    1151    1106    1135    1163
    1102    1112    1130    1087    1071    1125    1115    1128    1164    1098
    1123    1153    1082    1098    1134    1088    1131    1104    1101    1124
    1102    1092    1112    1028    1053    1086    1060    1105    1081    1117
    1141    1143    1105    1108    1110    1095    1073    1108    1117    1095
    1071    1087    1080    1074    1092    1095    1083    1081    1103    1129
    1155    1144    1100    1151    1102    1108    1110    1110    1150    1104
    1130    1233    1085    1099    1162    1187    1236    1343    1583    1855
    2155    2347    2362    2263    1890    1764    1712    1800    1716    1580
    1359    1266    1174    1143    1125    1115    1148    1142    1104    1089
    1120    1114    1101    1082    1107    1079    1064    1065    1055    1022
    1043    1097    1113    1101    1088    1096    1105    1053    1059    1091
    1090    1056    1036    1046    1054    1021    1028    1054     999    1075
    1065    1038    1096    1090    1086     977    1027    1115    1037    1070
    1070    1058    1059    1070    1060    1058    1063    1056    1047    1015
    1070    1047    1033    1031    1079    1052    1041    1066    1076    1059
    1046    1027    1043    1088    1077    1042    1052    1056    1054    1037
    1057    1064    1046    1068    1044    1038    1062    1055    1055    1034
    1078    1100    1058    1074    1048    1115    1109    1097    1074    1112
    1109    1106    1048    1121    1039    1166    1241    1123    1118    1193
    1214    1290    1286    1417    1604    1893    2247    2623    2888    3047
    2993    2579    2134    1835    1643    1470    1360    1286    1248    1225
    1187    1175    1167    1149    1120    1100    1135    1119    1117    1071
    1087    1128    1071    1043    1084    1172    1122    1092    1039    1027
    1057    1085    1080    1040    1064    1030    1047    1013    1070    1074
    1127    1090    1162    1038    1042    1017    1102    1093    1104    1059
    1092    1102    1065    1039    1056    1046    1060    1112    1047    1060
    1090    1078    1061    1046    1066    1046    1056    1054    1069    1062
    1031    1067    1106    1051    1022    1047    1078    1040    1024    1072
    1080    1049    1073    1048    1064    1068    1048    1051    1062    1033
    1051    1047    1022    1048    1024     998    1049    1029    1038    1026
    1051    1022     987    1048    1058    1040    1041    1025    1036    1056
    1048    1053    1047    1074    1035    1028    1036    1032    1067    1042
    1090    1086    1053    1003    1029    1074    1051    1052    1043    1040
    1058    1069    1051    1042    1073    1060    1026    1042    1093    1067
    1020    1048    1057    1097    1056    1076    1021    1041    1015    1001
    1051    1058     991    1055    1038    1081    1127    1008    1033    1005
    1081     986    1028    1062    1033    1065    1078     983    1055    1041
    1061    1054    1010    1011     996    1002    1047    1027    1017    1050
    1043    1035    1042    1060    1066    1084    1068    1058    1064    1060
    1053    1063    1080    1065    1048    1082    1049    1059    1036    1054
    1061     998    1041    1079    1050    1037    1047    1033    1062    1019
    1112    1037    1027     996    1040    1070    1073    1006    1055    1024
    1072    1031    1076    1011    1020    1048    1033    1042    1043    1036
    1010     983    1026    1064    1055    1044    1028     986     993    1035
    1029    1029    1058    1054    1079    1051    1042    1067    1077    1077
    1105    1083    1060    1066    1030    1028    1022    1072    1043    1049
    1097    1066    1032    1055    1038    1050    1006    1116    1059    1045
    1096    1040    1037    1040    1070    1015    1131    1042    1053    1065
    1003    1057    1106    1106    1155    1132    1136    1155    1152    1183
    1180    1167    1180    1189    1253    1364    1533    1732    2043    2567
    3225    3983    4738    5131    4962    4309    3544    3126    3130    3229
    3179    2953    2541    2037    1651    1457    1366    1290    1206    1183
    1197    1144    1133    1159    1142    1091    1160    1063    1089    1118
    1030    1134    1110    1023    1048    1138    1058    1047    1067    1066
    1119    1087    1071    1105    1061    1080    1096    1053    1073    1068
    1102    1102    1069    1042    1051    1066    1091    1074    1060    1050
    1063    1062    1060    1080    1102    1077    1066    1107    1100    1075
    1101    1114    1041    1041    1059    1069    1048    1051    1113    1137
    1090    1007    1110    1054    1070    1056    1013    1124    1078     991
    1031    1073    1072    1123    1073    1109    1121    1064    1113    1045
    1078    1083    1068    1065    1098    1084    1100    1081    1059    1027
    1054    1116    1067    1072    1076    1066    1096    1092    1077    1080
    1074    1118    1083    1059    1083    1067    1043    1074    1093    1061
    1052    1057    1049    1067    1053    1075    1027    1077    1067    1077
    1054    1043    1094    1106    1067    1064    1065    1039    1057    1096
    1098    1097    1013    1101    1059    1043    1037    1018    1063    1058
    1062    1013    1075    1090    1053    1076    1106    1087    1043    1009
    1046    1053    1033    1048    1084    1075    1034    1062    1048    1038
    1108    1136    1092    1067    1061    1058    1058    1085    1109    1081
    1049    1056    1032    1058    1071    1067    1042    1035    1014    1096
    1075    1049    1066    1069    1009    1084    1029    1144    1042    1063
    1080    1108    1085    1048    1053    1025    1023    1034    1076    1093
    1046     991    1043    1020    1020    1074    1039    1036    1072    1091
    1120    1102    1026    1029    1050    1050    1068    1120    1102    1055
    1081    1071    1059    1076    1068    1051    1060    1052    1064    1067
    1030    1032    1049    1057     994    1034    1067    1048    1084    1071
    1077    1038    1033    1076    1076    1038    1096    1046    1072    1052
    1039    1042    1027    1042    1051    1052    1023     998    1078    1071
    1043    1060    1038    1015    1014    1075    1090    1086    1022    1027
    1058    1057    1075    1075    1060    1113    1070    1065    1066    1088
    1100    1040    1032    1054    1114    1092    1120    1091    1088    1069
    1018     979    1029    1050    1075    1052    1042    1060    1070    1017
    1051    1010    1040     969    1089    1072    1086    1099    1074    1072
    1004    1005    1028    1029    1048    1022    1023    1054    1015    1090
    1102    1048    1059    1017    1025    1027    1044    1072    1067    1053
    1032    1065    1081    1041    1068    1082    1107    1105    1074    1098
    1077    1184    1279    1350    1387    1392    1497    1542    1462    1366
    1241    1203    1201    1234    1204    1161    1139    1237    1069    1045
    1029    1086    1076    1131    1069    1062    1075     998    1059    1042
     985    1011    1065    1064    1028    1032    1006    1001    1033    1044
    1077    1054    1038    1010    1013    1060    1059    1029    1005    1022
    1043    1041    1044    1002    1023    1049    1065    1092    1046    1027
    1032    1019    1018    1018    1087    1056    1058    1014     970    1027
    1066    1038    1002     998    1047    1029    1001    1054     995    1051
    1089    1028    1023    1064    1072     988    1016    1054    1067    1059
    1006    1038    1044    1038    1067    1030     994    1034    1044    1101
    1074    1029    1030    1027    1008    1031    1061    1060    1072    1083
    1081    1045    1052    1067    1080    1082    1047    1051    1041    1000
    1007    1063    1054    1002    1070    1062    1026    1045    1052     975
    1081    1074    1097    1013    1041    1074    1069    1030    1056    1031
    1089    1006    1017    1033    1075    1067    1037    1036    1050    1011
    1049    1036    1042    1053    1078    1100    1106    1100    1089    1070
    1032    1041    1051    1024    1051    1073    1081    1080    1076    1067
    1062    1021    1074    1054    1047    1058    1057    1062    1039    1081
    1110    1066    1080    1055    1091    1070    1039    1042    1056    1049
    1091     993    1068    1053    1048     995    1043    1069     972    1055
    1057    1006    1089    1079    1071    1109    1105    1144    1107    1086
    1070    1048    1063    1078    1077    1102    1111    1080    1090    1137
    1136    1113    1107    1139    1197    1215    1231    1292    1370    1493
    1725    1960    2226    2510    2741    2828    2688    2459    2127    1951
    1714    1540    1519    1407    1309    1283    1243    1281    1262    1165
    1129    1211    1150    1144    1079    1072    1075    1078    1052    1136
    1091    1081    1072    1057    1084    1098    1067    1098    1085    1072
    1050    1081    1098    1017    1093    1137    1082    1072    1077    1068
    1038    1048    1067    1062    1090    1104    1079    1031    1054    1057
    1067    1124    1098    1089    1074    1091    1085    1059    1128    1120
    1019    1086    1059    1066    1054    1002    1041    1079    1145    1053
    1054    1045    1116    1094    1057    1094    1047    1066    1061    1075
    1094    1058    1041    1066    1083    1009    1009    1061    1084    1070
    1054    1109    1061    1056    1099    1129    1093    1022    1035    1030
    1015    1055    1083    1045    1075    1083    1091    1105    1086    1046
    1018    1019    1058    1094    1078    1092    1106    1083    1083    1039
    1087    1082    1064    1077    1070    1064    1033    1054    1032    1129
    1075    1095    1133    1041    1084    1087    1074    1081    1119    1074
    1099    1073    1064    1065    1092    1092    1082    1080    1098    1071
    1112    1156    1147    1174    1283    1395    1544    1722    1927    2102
    2164    2147    1947    1745    1541    1504    1528    1558    1635    1661
    1594    1535    1361    1261    1194    1148    1084    1088    1123    1078
    1117    1157    1057    1111    1099    1028    1061    1106    1102    1035
    1040    1044    1044    1077    1047    1069    1017    1016    1022    1039
    1114    1078    1063    1090    1068    1063    1055    1027    1044    1039
    1046    1054    1036    1061    1075    1051    1070    1096    1078    1056
    1097    1089    1071    1056    1069    1077    1041    1006    1097    1072
    1100    1071     990    1088    1065    1078    1059    1047    1067    1062
    1064    1028    1119    1043    1059    1026    1064    1007    1073    1082
    1044    1037    1039    1022    1043    1055    1033    1068    1045    1049
    1029    1091    1053    1039    1052    1053    1041    1043    1021    1012
    1033    1046    1075    1037    1014    1062    1077    1033    1041    1063
    1067    1101    1038    1047    1054    1086    1084    1058    1027    1104
    1107    1081    1039    1114    1054    1028    1098    1062    1075    1069
    1108    1012    1034    1029    1108    1062    1080    1082    1055    1083
    1048    1056    1057    1049    1055    1038    1069    1102    1129    1096
    1075    1099    1065    1077    1129    1133    1115    1110    1128    1156
    1122    1112    1082    1059    1089    1084    1113    1076    1117    1114
    1113    1123    1128    1104    1109    1160    1167    1239    1240    1294
    1243    1375    1450    1630    1868    2096    2494    2765    3098    3054
    2790    2448    2240    1934    1778    1656    1544    1510    1448    1393
    1307    1286    1235    1169    1126    1181    1163    1136    1178    1099
    1108    1128    1140    1119    1092    1120    1124    1115    1114    1134
    1098    1061    1103    1158    1179    1156    1140    1162    1171    1136
    1148    1144    1201    1212    1263    1286    1279    1222    1281    1296
    1324    1315    1396    1458    1666    1710    2148    2651    3121    4002
    4744    5248    5463    5093    4331    3541    3016    2779    2837    2921
    3165    3314    3398    3224    2680    2227    1879    1629    1462    1383
    1324    1300    1223    1181    1200    1147    1143    1158    1145    1166
    1175    1159    1150    1141    1124    1120    1112    1079    1098    1113
    1144    1122    1083    1112    1107    1106    1089    1152    1099    1103
    1088    1082    1045    1107    1088    1117    1098    1033    1102    1065
    1094    1126    1094    1102    1110    1098    1092    1109    1056    1061
    1070    1100    1115    1115    1099    1051    1048    1079    1057    1017
    1049    1038    1095    1115    1134    1105    1068    1105    1081    1061
    1037    1090    1109    1089    1089    1077    1044    1083    1041    1045
    1026    1054    1078    1086    1087    1098    1049    1035    1002    1109
    1116    1096    1048    1112    1088    1049    1016    1070    1079    1067
    1029    1054    1053    1051    1119    1023    1053    1025    1066    1091
    1100    1068    1050    1045    1055    1048    1032    1062    1067    1041
    1052    1077    1084    1085    1089    1081    1108    1136    1176    1208
    1168    1145    1112    1104    1089    1110    1122    1094    1095    1046
    1105    1100    1078    1063    1104    1049    1021    1033    1039    1073
    1092    1041    1090    1101    1080    1058    1013     973    1038    1070
    1040    1049    1093    1053    1036    1033    1016    1016    1034    1071
    1070    1038    1060    1061    1035    1032    1043    1042    1060    1067
    1079    1022    1026    1051    1049    1091    1073    1055    1074    1039
    1040    1019    1015    1032    1048    1065    1059    1008    1057    1118
    1068    1078    1029    1065    1091    1056    1016    1056    1057    1047
    1119    1109    1064    1052    1074    1043    1013    1007    1080    1063
    1101    1024     992    1077    1084    1062    1050    1052    1040    1026
    1015    1051    1052    1036    1046    1028    1025    1041    1038    1038
    1069    1077    1036    1068    1076    1044    1080    1068    1007    1061
    1087    1057    1066    1035    1108    1073    1008    1014    1012    1087
     993    1061    1053    1019    1030    1041    1060    1046    1018    1063
    1082    1072    1013    1071    1013    1096    1039    1068    1029     969
    1056    1058    1052    1046    1043    1039    1062    1026    1021    1065
    1036    1036    1025    1043    1068    1076    1065    1064    1077    1055
    1067    1044    1052    1022    1021    1066    1030     982    1010    1046
    1100    1118     999    1054    1043    1037    1027    1085    1081    1011
    1101    1071    1017    1057    1031    1070     988    1083    1027    1094
    1030     986    1066    1069    1049    1110    1037    1070    1042    1029
    1012    1027    1074    1074    1098    1039    1028    1032    1052    1078
    1035    1033    1048    1067    1079    1090    1090    1073    1067    1094
    1094    1062    1069    1103    1098    1055    1079    1103    1056    1091
    1059    1136    1091    1072    1073    1118    1163    1093    1185    1134
    1174    1135    1132    1128    1152    1110    1135    1164    1156    1248
    1308    1337    1326    1412    1551    1707    1964    2365    2874    3560
    4285    5122    5643    5470    4914    3996    3185    2695    2527    2522
    2604    2822    3126    3345    3370    3181    2728    2301    1961    1694
    1455    1361    1344    1212    1195    1193    1176    1138    1098    1117
    1155    1168    1121    1127    1063    1069    1147    1078    1067    1071
    1104    1003    1088    1090    1108    1028    1045    1040    1064    1078
    1112    1095    1022    1015    1055    1018    1040    1054    1065    1072
    1038    1038    1057    1067    1095    1110    1084    1080    1083    1119
    1172    1159    1135    1125    1127    1112    1116    1049    1049    1088
    1077    1033    1067    1084    1082    1063    1069    1019    1051    1075
    1040    1081    1066    1061    1090    1052    1020    1076    1041    1091
    1085    1026    1104    1043    1016    1039    1030    1059    1033    1030
    1041    1027    1070    1066    1003     976    1007    1044     992    1014
    1082    1035    1006    1051    1054    1039    1036    1031    1042    1054
    1044    1019    1028    1039    1009    1044    1069    1045    1028    1033
     992     989    1008    1046    1035    1028    1020    1000    1010    1047
     980    1032     973     988    1059    1092    1089    1040    1020    1047
    1010    1033     982    1036    1071    1068    1009    1029     990    1029
    1048    1039    1024     997    1053    1036    1042    1014     990    1052
    1058    1044    1045    1058    1056    1042    1059    1073    1062    1018
    1052    1049    1012    1049     998    1025    1009    1040    1048    1057
    1015    1037    1015    1034    1091    1115    1021    1027    1090    1029
    1069    1000    1039    1036    1019    1012    1037    1034    1009    1011
    1006    1024    1028    1056    1065    1043    1057    1058    1066    1062
    1056    1054    1071    1083    1035    1021    1057    1058    1060    1061
    1046    1060    1112    1141    1123    1119    1162    1196    1213    1243
    1232    1181    1155    1138    1103    1091    1174    1137    1102    1157
    1228    1162    1148    1206    1153    1095    1155    1123    1117    1240
    1237    1258    1279    1365    1302    1266    1160    1152    1146    1138
    1105    1060    1114    1101    1062    1059    1028    1049    1085    1057
    1074    1039    1035    1031    1003    1063    1073    1023    1030     994
    1014    1029    1009    1042    1059    1078    1054    1044    1062    1032
    1032    1018    1001    1005    1058    1010    1020    1063    1040    1125
    1058    1055     997    1048     957    1046     967    1082    1115    1050
    1065    1063    1094    1033     993    1121    1119    1145    1175    1118
    1131    1101    1137    1105    1135    1107    1109    1065    1057    1072
    1108    1047    1062    1060    1089    1066    1033    1047    1055    1011
     984     979    1003     998    1036    1048    1063    1013    1013    1038
    1033    1018    1026    1026    1079    1046    1011    1067    1063    1007
    1026    1041    1056     977    1031     982    1021    1035    1033    1026
    1018    1058    1025    1011    1055    1000    1068    1012    1018    1032
    1005    1033    1016     978    1065    1058    1025    1036    1027    1032
    1042    1056    1034    1000    1038    1022    1023    1077    1072    1054
    1017    1039    1031    1036    1077    1024    1036    1059    1050    1016
    1030    1037    1096    1044    1044    1025    1036    1075    1007    1031
     984    1080    1012    1063    1027    1028    1040    1017    1067    1037
    1048    1010    1068    1033    1011    1029    1054     988    1029    1045
    1017    1043    1028     988     997    1022    1068    1071    1028    1043
    1026    1002    1013    1034    1066    1078    1056    1028    1010    1016
    1062    1025    1038    1033    1062    1049    1048    1041    1038     999
    1032    1060    1020    1030    1064    1022    1066    1058    1020    1050
    1053    1015    1088    1044    1010    1011    1051     999    1013    1033
    1040    1028    1033    1010     964     982     993    1049    1084    1048
    1024    1055    1053    1053    1026     992     999    1024    1024    1027
    1072    1079    1041    1044    1011     982    1017    1057    1058    1043
    1044    1018    1007    1046    1059    1012    1022    1033    1025    1051
    1009    1003    1005    1047    1003    1025    1028    1039    1090    1070
     968    1041    1069    1016    1040    1026    1048    1018     993     975
    1017     973     988     977    1009    1000     981     988    1061    1068
    1003     988    1039    1028    1032    1036    1023    1032    1030    1017
    1011    1012    1025    1039    1005     995    1006    1024    1049    1051
    1036    1066    1107    1122    1158    1150    1100    1080    1085    1082
    1104    1018    1070    1068    1057    1076    1025    1150    1030    1014
    1022    1002    1024    1032    1025    1028    1052    1014    1015     982
    1004    1066    1054    1010    1032    1029    1020    1011    1015    1006
    1048    1082    1053    1046    1051    1047    1137    1167    1161    1234
    1243    1266    1340    1317    1261    1185    1155    1123    1078    1122
    1121    1092    1087    1136    1141    1154    1152    1136    1124    1091
    1078    1107    1059    1047    1010    1019     994    1059    1040    1027
    1012     986    1003     971    1009    1066    1032    1021     988    1010
    1054    1066     972    1009    1026     971    1007    1026    1009    1033
    1033    1074    1034    1055    1052    1028    1014    1023    1025    1015
    1031    1035    1012    1040    1044    1029     992    1019    1041    1027
    1038    1015    1018    1019    1028    1017    1016     962    1032    1009
    1054    1015    1056     993     975    1005    1052    1010     995     978
    1075    1037    1006    1030     973    1040    1048    1068    1006    1001
     979     983    1031    1044    1071    1018    1008    1051    1026    1012
    1049    1055    1053    1061    1051    1031     986     959    1017    1024
    1039    1042    1022    1007     981    1035    1033    1064    1020    1008
    1016    1008    1001    1045    1042    1015    1066    1062     970    1074
     974    1042    1027    1088    1048    1013    1047    1079    1069    1077
    1050    1079    1064    1109    1079    1016    1006    1052    1054    1069
    1033    1047    1032    1074    1080    1057    1055    1062    1012    1017
    1057    1051    1070    1032     981    1006    1023    1002     982    1020
    1031    1005    1026    1027     991    1031    1027    1049    1042    1088
    1096    1008    1053    1023    1071     994    1084    1074    1038    1007
    1028    1030    1016    1029    1029    1101    1058    1040    1104    1064
    1038     996    1016    1030    1033    1020    1014    1010    1046    1075
    1103    1119    1092    1091    1057    1012    1052    1064    1098    1131
    1116    1102    1097    1162    1204    1189    1213    1302    1441    1526
    1637    1785    1867    1920    1807    1689    1543    1449    1326    1303
    1259    1283    1295    1270    1373    1405    1435    1448    1431    1444
    1421    1312    1255    1156    1175    1147    1059    1078    1079    1110
    1071    1101    1105    1059    1054    1105    1140    1083    1027    1006
    1014    1055    1047    1045    1054    1035    1058    1068    1041    1046
    1052    1040    1049    1028    1043    1029    1036    1021    1075    1041
    1072    1060    1079    1052    1051    1066    1030    1108    1126    1165
    1045    1068    1068    1050    1129    1103    1189    1185    1189    1270
    1336    1410    1452    1506    1498    1411    1283    1301    1239    1192
    1172    1186    1160    1185    1200    1221    1226    1189    1239    1301
    1233    1165    1150    1112    1057    1051    1069    1064    1038    1084
    1069    1073    1043    1059    1091    1080    1085    1075    1057    1040
    1003    1012    1007    1084    1007    1005     946     964    1069    1056
    1114    1017    1008    1062    1134    1033    1070    1014    1023    1003
     979    1030     982    1036    1089    1004    1015    1022     998    1028
    1027    1009    1024    1053    1032    1000    1047    1077    1059    1019
     993    1027    1037    1035    1003    1000    1042    1079    1024    1031
    1045    1070    1026     987     998     984     963    1049    1060    1026
    1069    1046    1024     993    1048    1002    1008    1027    1038    1037
    1045    1058    1028    1041     980    1042    1058    1067    1039    1056
     985    1027    1017    1011    1072     965     988    1037     996    1002
     976     992    1015    1007    1018    1036    1029    1034     989     983
    1008     976    1001    1008     989    1013    1022     990    1018    1047
    1025    1039    1008    1040    1020    1008    1010    1076    1090    1063
    1160    1151    1103    1044    1103    1054    1047    1063    1066    1057
     997     992    1026    1037    1012    1066    1059    1021    1013    1052
    1029    1053     997    1020    1036     993     998    1007    1007     972
    1011    1049    1007    1047    1051    1027    1013    1005    1019    1005
     984     993    1010    1001     995    1025    1023     999     975    1009
    1007     991    1006     976     975     980     944    1000    1015    1042
    1009     991     978    1013     966    1008     972    1073    1007    1033
     941    1018    1016    1018    1000    1016     981     972    1010    1000
     990     984     981    1028    1030    1030    1031    1035     983    1004
    1036    1004    1011    1010     991     993    1003    1018    1008    1035
    1036    1031     992    1028    1046    1019    1007    1051    1030    1007
    1054    1029    1028     993     994     963     972    1049    1025    1007
     991    1054     988    1039     974     963    1005    1096    1034    1020
    1039    1045    1097    1049    1040    1051    1015    1036    1042    1037
     982    1032    1015    1030    1032    1035    1014    1047    1020     988
    1046    1071    1068    1058    1065    1042    1052    1075    1122    1116
    1104    1192    1238    1236    1231    1315    1356    1348    1246    1205
    1112    1095    1060    1152    1120    1106    1102    1103    1186    1147
    1178    1205    1179    1137    1194    1107    1122    1110    1085    1094
    1071    1097    1149    1169    1171    1193    1206    1261    1344    1293
    1331    1376    1342    1251    1242    1222    1170    1168    1151    1142
    1132    1145    1154    1114    1079    1057    1068    1097    1083    1086
    1068    1028    1004    1063    1051    1044    1048    1057    1023    1021
    1038    1051    1066    1058    1030    1045    1003    1059    1046    1071
    1009    1008    1002    1120    1062    1036    1057    1077    1093    1102
    1048    1053    1039    1065    1031    1044    1051    1000    1012    1026
    1010                                                                        
