Co 880                                                                          
BANK       1    4941     494   CONST  1600.0     1.7     0.0     0.0         STD
     888     911     937     894     874     911     915     921     904     904
     930     914     876     888     937     937     918     958     933     890
     862     864     868     898     924     913     863     868     897     894
     883     885     900     928     879     875     874     922     929     894
     876     869     917     903     908     918     920     932     909     893
     954     912     919     856     843     882     943     887     876     895
     851     895     931     904     916     891     929     894     926     900
     887     879     878     903     880     877     907     913     866     876
     887     876     877     839     830     865     884     902     892     922
     948     957     933     921     933     895     911     877     924     927
     898     911     909     874     870     916     867     915     930     945
     867     881     910     906     882     877     869     888     913     895
     925     924     894     889     914     884     919     873     896     861
     921     925     888     903     852     883     899     878     898     904
     937     949     928     940     909     908     908     900     887     886
     901     927     934     891     903     886     892     918     937     914
     896     931     934     946     869     913     899     898     854     916
     874     905     921     898     901     891     931     887     860     851
     891     949     899     942     918     922     923     910     890     881
     848     848     923     928     881     859     902     921     910     890
     892     926     921     917     881     869     884     876     908     920
     892     926     928     892     883     910     909     921     905     945
     918     916     926     907     887     902     926     951     953     961
    1029    1013    1160    1225    1362    1546    1740    1773    1737    1613
    1464    1286    1260    1180    1043    1013     988     905     957     972
     993     948     953     968     968     949     925     916     926     921
     916     914     947     954     928     942     923     939     965     921
     923     944     879     895     913     907     922     905     953     934
     914     855     962     932     936     934     927     905     913     917
     919     907     915     960     912     930     878     918     895     917
     932     967     924     964     911     919     910     924     967     965
     958     924     896     906     934     959     947     947     962     892
     886     919     928     922     898     935     926     923     951     941
     946     889     913     885     963     913     932     918     970     916
     895     944     901     905     911     914     962     937     934     969
     994    1000    1002    1069    1145    1280    1486    1715    2124    2585
    2970    3189    3283    2914    2545    2204    1873    1562    1350    1158
    1090    1075     990     945     944     946     976     937     915     918
     919     898     904     900     896     941     955     961     961     953
     921     936     898     950     955     928     867     952     930     964
     924     898     884     965     912     913     898     906     922     865
     916     912     924     944     922     908     935     954     983     932
     924     903     907     907     957     926     914     917     898     893
     924     893     905     920     910     911     920     952     940     953
     924     904     925     900     962     941     918     915     939     924
     918     917     950     975     900     912     949     908     896     918
     937     903     891     906     907     887    1007     963     922     967
     892     899     919     929     938     940     937     966     963     956
     953     875     888     947     913     892     900     960     954     919
     919     908     920     960     961     948     899     902     920     939
     949     951     918     922     965     914     890     934     922     921
     944     957     941     941     948     918     950     919     950     918
     932     988     873     869     929     959     906     976     915     971
     967     971     972     956     947     915     922     934     930     936
     915     892     921     901     934     943     922     939     941     947
     929     898     940     962     931     901     891     937     930     978
     987     938     916     920     906     948     965     967     954     906
     943     897     899     915     951     851     969     958     960     952
     911     936     914     912     875     962     976     929     926     970
     921     951     954     907     927     904     916     922     911     954
     989     940     928     938     948     951     926     906     913     928
     957     958     922     922     943     963     968     955     939     907
     942     927     942     949     945     976     907     938     907     967
    1001     962     924     901     902     952     943     944     960     971
     925     910     959     959     934     935     934     935     948     932
     955     939     932     937     923     928     964     958     919     939
     913     912     913     904     920     945     947     954     936     948
     937     933     928     942     980     964     945     945     941     967
     948     945     931     958     946     945     891     934     945     930
     908     977     900     944     976     912     945     973     941     939
     931     895     923     923     978     946     917     942     962     936
     910     902     955     949     935     945     938     952     948     912
     967     992     951     955     959     960     928     923     952     956
     960     938     946     908     934     980     939     928     943     935
     913     942     921     968     953     957     957     912     950     902
     940     912    1022     967     953     978     997    1015     981     947
     937     958     958     989     951     946     939    1008    1022     973
     956     974     959     941     946     968     957     918     938     973
     950     952     967     981     983     955     944     902     902     967
     994     953     953     963     949     917     944     985     971     993
     962     927     923     975     962    1000     953     985     999     971
     925     967     948    1011     962     946     942     999     987     971
     950     952     979     974    1020     944     926     983     972     958
    1010     980     903     882     945     951     960     965     979     968
     918     924     963     962     957     982     978     979     965     975
     986     966     972     963     952     942     954     959     961     977
     973     964     992    1012    1015     990     985     996    1018    1010
     943     991     972     960     989     991     980     934     976     985
     984     955     977    1015     975     978     962     953     935     976
    1005     983     984    1014     917     932     966     918     937     969
     968     940     951    1009     990    1006     996     963     972     998
    1023     960     987     998     982    1001     996     917     969    1002
    1048     960     952     947     994     966    1014    1038     975     955
     994     958     958     973    1001     969     983     992     948     922
     976     982     991     967     964     950     961     958     979     983
     989    1002    1003     944     946     986     980     981     975     943
     948     974    1008    1014     977     942     946    1006    1022     986
     950     957     983     965     953     959     978    1017     987     997
    1037    1005     997    1029    1115    1059    1071    1029    1040    1122
    1130    1135    1296    1423    1688    2067    2436    2732    2990    2957
    2655    2304    2040    1790    1612    1460    1330    1224    1131    1110
    1082    1065    1111    1076    1051    1082    1046    1026    1037    1026
    1040    1031     982     973    1028    1025    1067    1045    1002     983
    1031    1069    1028     966    1043    1006    1005    1027     993    1008
     988    1030    1053    1001    1013     991    1088    1043    1037    1010
    1012    1042     966    1014    1034    1010     998     975     982    1014
     990    1000     989     994    1011    1009    1006    1001    1006    1028
    1033    1018    1012     993     971    1005    1013     967     986     997
     989     990    1021    1050    1015    1021    1023    1040    1003     969
     973    1013    1007     977     997     994     989     999     970     990
     959     976     986     998     967    1015    1010     986     996     946
     964    1015     959     963    1013     981     951     974     973     970
     997    1027    1006     989     987     963    1006    1012     945     934
     934     979     995     958     950     997     986     979     995     945
     985     993     965     964     976     958     987     933     991    1026
    1021     967     994     965     998    1027     954     934    1005     959
     981     959    1045     978    1015     973     961     962     974     976
     959    1018     996     968     970     990     940     976     961     977
     970     997     994     921     959    1027    1044    1013     977     992
    1013    1035    1040    1109    1151    1158    1146    1252    1355    1456
    1653    2090    2607    3422    4432    5267    5398    5336    5054    4705
    4441    4052    3310    2775    2200    2008    1713    1455    1272    1153
    1123    1104    1011    1037    1052    1046     980    1008    1001     989
     983     955     968     975     980    1009     985     948     978     986
     969     969     994    1009     972     973     975     960     991     992
     992     959     966     972     947     941     922     937     962     960
    1004     979     946     948     960     972     974     952     970     984
     938     951     953     970     973     983     941     975    1015     964
     961     951     929     992     978     983     966     969     958     952
     968     978     954     962     987     970     927     972     979     971
     980     939     933     974     966     950     968     982    1009    1004
     967     988    1033    1019    1000    1039    1048    1100    1157    1218
    1256    1340    1311    1359    1224    1234    1233    1273    1228    1223
    1184    1208    1181    1258    1245    1264    1372    1591    1708    2066
    2663    3425    4558    5534    6248    6544    6268    5499    4864    4173
    3475    2842    2314    1975    1769    1602    1449    1342    1296    1238
    1181    1168    1123    1127    1165    1159    1119    1061    1073    1060
    1055    1061    1068    1101    1097    1063    1081    1057    1040    1017
    1077    1069    1085    1083    1080    1017    1029    1099    1035     977
    1030    1057    1028    1078    1053    1066    1047    1104    1089    1091
    1075    1023    1045    1041    1088    1040    1079    1043    1039    1025
    1007    1032    1019    1002    1066    1087    1019    1023    1042    1041
    1060    1055    1048    1056    1030    1011    1005    1022    1020    1025
     992     955    1026    1025    1066    1071    1016    1054     985    1049
    1009    1014     966    1048    1081    1029    1088    1167    1188    1284
    1277    1287    1225    1218    1192    1151    1096    1092    1079    1051
    1052    1002    1022    1003     970    1035    1048    1028    1007    1025
     992    1015    1045    1020     988    1038    1042    1009     997    1033
    1052    1044    1023     985    1043    1014     984     991     991     995
     996    1013    1026     976     984     992    1000    1008    1024     981
    1014    1021     997     984     974     973    1026    1019    1032    1042
    1034     991    1015    1031    1004    1009    1002     934     961     995
    1039    1037     998     995     983     981     965    1007     999    1009
    1015     954     960     965     986    1034    1053    1014     987     999
    1016    1021    1010     985    1003    1003     992    1007     983     996
    1005    1007    1019    1023     993    1079    1068     982    1058    1072
    1129    1167    1224    1307    1534    1586    1681    1677    1792    1803
    1743    1691    1636    1570    1531    1501    1489    1460    1423    1509
    1603    1578    1606    1729    1945    2175    2645    3357    4536    6331
    8607   11261   13431   14358   14006   13100   12276   11659   10969    9805
    8187    6427    5098    4103    3281    2597    2135    1809    1517    1426
    1350    1400    1261    1241    1127    1100    1119    1101    1056     984
    1086    1109    1039    1037    1009    1039     966    1024    1053    1033
    1003     934     977     970    1039     979    1002    1017    1025    1013
     950     978     993    1002    1005    1007    1017     994     983     986
     982     975     994     998     998     983     976    1009    1005     986
     990     982     958    1013     973     968     986     988    1006     987
    1006    1009    1039    1016    1020     999     955    1045    1036    1004
    1104    1072    1112    1157    1261    1370    1467    1493    1514    1592
    1581    1581    1490    1394    1351    1328    1211    1204    1166    1113
    1095    1111    1108    1125    1110    1128    1219    1256    1438    1653
    1832    1915    1819    1810    1761    1742    1755    1698    1592    1458
    1360    1299    1204    1119    1116    1093    1016    1076    1009     984
    1021    1023    1009     986    1055    1025    1001     930     902     964
     904     990     989     970     975     969    1009     944    1001    1000
     991     987     942     934     980     961     964     986     995     982
     981     971     962     955     968     962     943     945     963     982
    1011    1023     980     974     991     963     959     968     979    1013
     952     954     988     973     932     960     958     936     957     956
     948     978     916     948     960     983     916     943     964     956
     972     945     950    1016     958     942     929     946     964     951
     957     946     951     966     928     954     947     965    1002    1012
    1011     997     987    1018    1017    1006    1008    1038    1034    1031
    1063    1055    1089    1161    1215    1269    1386    1552    1705    1850
    2029    2168    2132    2043    1987    1804    1689    1453    1377    1316
    1242    1197    1161    1071    1056    1076    1007    1009    1033     973
     992     995    1024     949     994    1005    1007     946     943     985
     976     982    1007    1006     952     979     964     980    1005    1004
     973     934     947     973     980     985     973     944     936     943
     991     967     948     976     893     950     955     963     928     972
     991     936    1010    1002    1005     949     960     972     990     990
     956     996     927     974     951     928     934     975     957     958
     976     944     993     969     973     936     945     989     923     920
     995     976     988     971     950     949     976     964     929     929
     943     982     983     951     952     959     932     934     958     943
     937     971     954     950     964     918     964     950     958     941
     991     942     984    1061    1045    1019     976     993    1039    1068
    1068    1205    1162    1217    1372    1532    1678    1838    1999    2024
    2088    2045    2014    1928    1764    1717    1699    1564    1476    1415
    1330    1241    1191    1138    1054    1000     969     987    1014     991
     980     971     985     979     946     960     955     972     976     993
     941     993     965     963     940     962     980     967     919     968
     903     967     967     936     938     963     981     892     947    1010
     962     968     918     995     961     882     922     933     934     956
     947     927     909     949     977     956     954    1002     982     935
     959     990     947     936     955     945     955     987     950     918
     932     959     944     927     982     951     930     901     950     986
    1000     976     964     996     942     939    1013     973     951     964
     860     987     970     932     979     973     946     909     970     999
     997     916     991     915     919     967    1004     938     964     999
     941     964    1000     944     935     945     938     950     963     975
     994     975     972     973     990    1009     982     943     952     951
     989    1019     980     963     971     942    1006    1000    1014    1002
     991    1025    1048    1058    1070    1062    1062    1047    1112    1126
    1173    1238    1333    1401    1541    1703    2040    2397    2822    3167
    3370    3420    3276    3169    3043    2889    2860    2716    2549    2230
    2072    1858    1659    1525    1397    1280    1231    1131    1065    1085
    1037    1013    1028    1036    1014    1021    1006    1002     979     965
     990     987    1039     995     986     991    1000     952     984     998
    1017     974     977     983    1017     987     982     985    1008     961
     925     942     981     974     956     961     964     957     970    1008
     991     982     944    1009    1025     931     971     984     941     949
     967     953     967     965     998     984     953     971     968     951
     965     973     981     964     991    1001     984     951     934     963
     967     971     974     985     951     971    1002     967     925     989
     989     979     937     945    1005     984     928    1027    1018    1034
     965     947     998     990     975    1018    1025     974     945     939
     966    1007     971     979     993     984     997    1020     988     960
     947     982     984     967     978     989     979    1011     971     945
     962     987     996     998     960     947     985     974     948     953
     986     991     964     985     977     979     922     993     956     953
     978     965     990    1028     983     985     980     968     941     941
     946     967     964     982     949    1011     951     964     965     979
     973     958     989     990     962     996    1007     958     923     982
    1021     957     989    1012     964     973    1003     992     976     964
     952     984     972     973     951    1002     986     946     959     944
     956     922     951     986     983     982     993     936     987     953
     944     981     962    1026     985     979     861     930     919     937
     938     982     969     964     954     914     968     977     947     937
     989    1001     954     955     968     946     957     972     957     956
     936     927     973     997     964     935     952     962     986     974
     979     969     964     945     947     945     970    1044     926     926
     942     996     946     917     948     962    1019     913     935     860
     934     970     952     901     934    1001     976     976     934     965
     950     964     917     948     946     928     938     956     970     961
     917     962     989     989     977     957     934     926     963     971
     956     957     977     956     980     980     944     958     983    1001
     960     928     936     944     929     958     996     961     899     901
     917     911     955     961     944     966     961     892     952     952
     913     909     936     985     995     943     939     984    1016     989
     976     957     926     961     942     958     949     959     924     928
     952     973     964     990    1032    1037    1082    1150    1209    1223
    1263    1273    1226    1208    1168    1147    1121    1088    1057    1051
    1014    1011    1014    1008    1001    1000    1000     981     962     959
    1000     898     989     932     950     973     980     965     927     917
     953     973     963     920     965     993     944    1008     968     920
     934     968     944     941     938     950     955     976     950     951
     928     941     950     987     995     951     938     929     906     930
     958     970    1003     978    1010     969     975     972    1029     997
     902     922     966     958     910     934     992     984     953     888
     955     974     970     916     990    1013     972     905     979     917
     975     973     921     934     927     970     971     909     951     963
     946     943     965     951     935     921     935     904     938     953
     978     972     931     921     935     916     924     957     956     950
     920     934     930     960     966     986     975     963     962     999
     990     945     943     950     922     955     971     951     955     890
     966     931     989     950     986     941    1006     939     916     952
     957     951     956     953     955     956     986     967     906     940
     947     941     920     912     902     898     932     921     926     936
     931     943     961     938     920     924     920     952     974     983
     956     948     992     986     953     963     909     925     956     971
    1000     941     949     948     912     910     965     944     905     941
     931     951     926     922     963    1020     980     970    1033     975
     963     975     964     928     995     953     973     979     982    1040
    1027    1006    1081    1169    1151    1191    1298    1383    1496    1709
    1914    2129    2274    2289    2288    2297    2154    1956    1822    1718
    1577    1445    1368    1315    1279    1177    1158    1177    1152    1079
    1074    1039    1062     949    1000    1010    1008    1012    1025     955
    1034     970     985    1001     997     946     994     970     969    1003
     971    1035     938     978     959     977     964     985    1012     984
    1000     981     965     969     983     972     992    1015    1014    1005
     973     961     982     968     972     962     945     940     940     928
     960    1011     979    1000     984     996     990     959     975     937
     968     975     935     958     943     981    1009     964    1027    1006
     967     961     971     993     973     998     984     983     964     966
    1000     950     928     955     969     984    1007     982     962     976
     973     963     984     974     951     958     974    1000     983     931
     959     986     984     952     958     986    1021    1090    1071    1005
    1037    1096    1111    1155    1198    1200    1212    1228    1213    1234
    1160    1175    1151    1149    1081    1076    1027    1022     999    1035
    1010     996    1071    1037    1026    1041    1017    1017    1047     998
    1015    1046    1046    1069    1133    1175    1230    1331    1474    1614
    1766    1812    1751    1710    1686    1618    1555    1505    1490    1480
    1455    1503    1447    1316    1283    1219    1145    1105    1139    1014
    1020    1012     992    1025    1003     965     990     977    1052     983
    1021    1004     979     990     980     956    1006     991     965     961
     992     958     956     924     928     984     993     997     994     992
     969     965     973     986     945     936     946     927     928     936
     941     991     973     956     940     943     944     937     946     964
     958     983    1002     936     916     962     962     975     940     940
     987     964    1003     980     972     977     996    1001     956     973
     968     949     980     978     935     996     961    1020    1015    1019
    1040    1032    1027     940     950     965     963     990    1027    1017
     991     985     952     954     959     971     968     968     936     913
     945     960     932     970    1006     995     967     975     981     964
     963     969     974     973    1008     967     958     967     994     929
     940     980     946     958     965     986     972    1013     949     964
     987     976    1039     995     979     975     965     937     949     953
     947     915     975     938     946     946    1007    1032     950     937
     961     997    1049    1000     987     991     957     978    1008    1019
     986     999    1030    1048     997    1018    1033    1010    1027    1019
    1053    1115    1073    1103    1136    1172    1230    1279    1398    1601
    1834    2007    2191    2464    2510    2515    2410    2343    2066    2107
    1909    1746    1674    1452    1427    1415    1274    1291    1235    1195
    1169    1119    1137    1085    1039    1033    1048    1039    1018    1037
    1045    1004    1019    1013     987     982     978     995    1004    1018
    1046    1006    1013    1045    1039    1053    1051    1066    1115    1050
    1115    1106    1099    1147    1138    1189    1169    1270    1342    1406
    1493    1602    1821    2197    2635    3190    3528    4072    4303    4388
    4139    3815    3535    3258    3189    3059    3049    3083    3083    2919
    2663    2506    2265    2132    1863    1622    1491    1395    1268    1189
    1146    1142    1094    1073    1073    1042    1051    1052    1031    1022
     991    1004    1017     998     971     982    1030    1010    1000     985
     938     972     971     980     998     998     964     972     994    1067
     970    1047    1007     968     991     968     952     970    1002    1027
     968     992     970     948    1003    1009    1006    1023     978     975
     984     951     962     986     976    1007     985     952     968     967
     948     937     962     994     999     959     970     967     970    1000
    1008     964     932     913     969     975     998    1009     997     967
     935     984     955     928     973     948     993     984     987     978
    1027     906     962     936    1055     990    1000     957    1018    1000
     942     964     939     948     950     983     982     975     983     989
     979     988     970     993    1003     987     976     968     997    1040
    1032    1075    1120    1100    1134    1191    1174    1293    1355    1350
    1393    1426    1489    1528    1545    1535    1450    1441    1420    1401
    1346    1322    1288    1329    1385    1243    1223    1178    1175    1114
    1090    1126    1053     971    1027     998    1007     983    1004     989
     970     958     962     965     977     960     967     951     970     984
     992     979     977    1017     992     988     950     933     969     990
    1002    1011     975     963     952     920     960     974     992     990
     956     980     999     991     968     944     975     920     959     999
     881    1023     961    1037     996     951     935     931     929     989
     990     963     922     928     951     928     976     948    1009     981
     987     957     970     960     922     927     957     961     965     948
     950     976     965     968     986     958     985     982     949     967
     968     965     968     957     941     958     928     968    1009     965
     893     951     964     961     940     924     950     953    1000     914
     924     959     941     943     913     986     970     996     977     972
     980     922     932     929     957     947     939     942     928     969
     987    1000     968     943     973     962     964     970     968     983
     966     933     944     958     947     937     923     955     939     903
     951     980     952     951     948     947     993     963     952    1011
     978     958     963     940     913     981     988     979     970     996
    1005     941    1010     928     920     947     971     938     915     983
     955     932     973     958     939     939     997    1001     971     991
     939     938     961     933     938     977     980     985     977     983
     973     925     934     928     959     958     933     944     955     973
     993     935     978    1016     987     948     954     955     962     962
     957     988    1006     976    1038    1010    1004    1007     999     967
    1005    1019    1084    1024     985     998    1011    1047    1016     985
    1068    1058    1082    1067    1097    1119    1179    1264    1318    1347
    1463    1639    1858    2193    2611    3096    3641    4166    4446    4396
    4154    3899    3542    3239    3025    2907    2854    2883    2961    2965
    2902    2742    2628    2429    2152    1967    1813    1667    1474    1344
    1270    1182    1133    1148    1125    1043    1012    1064    1074    1046
    1056    1054    1029    1031    1068    1048    1076    1044    1033    1007
    1000    1024    1033    1048    1048    1070    1010    1010    1019     973
     973     982     985     962     968    1006     980     959     996     978
     966     973    1000     997     994    1003    1053    1033    1079    1039
    1087    1049    1053    1060    1007    1001    1045    1006     983     994
    1039     971     981     983     954     967     918     998     970     924
     946     955     964     912     919     980     967     941     977    1002
     979     947     919     919     943     929     942     954     963     966
     928     938     961     955     956     966     952     955     992    1001
     988     952     952     956     935     968     973     977     949     989
     963     999     935     954    1007     986     932     923    1044     938
     916     946     952    1003     984     982    1009     943     961     958
     938     931     972     924     949     913     944     980     952     935
     966     976     968     962     994     997     983     940     938     944
     959     971     944     949     950     954     957     963     945     968
     906     950     981     954     954     974     979    1005     991     955
     961     945     942     971     965     958     938     942     976     974
    1005     924     987     989     951     946     985     988     958     868
     992     913     936     986     927     909     934     951     960     958
     940     936     973     995     965     953     941     948     964     951
     934     943     944     941     953     937     950     980     920     917
     999    1014     994     997    1013    1018    1001    1066    1082    1059
    1100    1099    1070    1087    1034    1075    1098    1054    1055    1072
    1001    1053    1054     990    1097    1082    1052    1090    1118    1058
    1094    1138    1183    1180    1106    1196    1245    1253    1211    1163
    1160    1137    1114    1114    1125    1143    1131    1087    1046    1060
    1043    1041    1039    1029     998    1014    1022     998     992    1013
    1019    1001     995    1002     957     988     938     958     969     959
     962     995    1017     956     945     936     988     984     958     988
     979    1015     985     951     986     965     991    1003     970     985
     966     962    1006     976     955    1018    1013     985     992    1020
    1006    1030    1043    1028    1012    1029    1049    1054    1071    1057
     988     964     994     971     988     997     941     979     965     995
    1001     942     933     954     916     968     929     950     918    1015
     950    1030     965     942     961     981     966     993     890     966
     957     989     933     881     920     990     958    1014     950     969
     968     960     964     947     980     942     953     989     961     969
     981     975     964     989    1000     974     976     976     961     925
     931     954     980    1008     960     936     960     979     943     949
     878     897     927     994     981     951     965     996     988     980
     978     970     949     934     985     981     967     931     942    1016
     937     973     962     978     981     944     996     956     930     908
     947     952     963     957     959     949     955     953     957     941
     941     965     996    1000     943     930     962     967     985     949
     926     902     936     904     966     932     940     928    1004     990
     902     940     936     981     937     993     993     939     999     946
     940     979     973     953     964     956     959     963     943     936
     976     967     983     969     978     968     984     990     961     932
     933     938     944     953     933     952     956     959     967     959
     997    1016     987     945     943     912     934     948     947     942
     916     916     957     962     950     953     893     951     964     959
     951     985     915     903     941     974     903     881     974     913
     965     964     941    1000     923     933     953     955     945     980
     976     966     959     928     937     916     943     941     936     928
     932     970     992     978     957     973     976     950     952     991
     975     936     953     937     952     925     953    1016     979     951
     976     920     948     926     974    1003    1020     974     911     974
     969     966     983     943     960    1018     956     980    1023    1068
     992    1020    1096    1097    1104    1124    1101    1102    1097    1106
    1126    1176    1166    1100    1096    1110    1140    1148    1178    1182
    1154    1171    1171    1132    1144    1116    1117    1112    1071    1074
    1080    1117    1132    1101    1101    1095    1070    1065    1048    1036
    1088    1042    1035    1062    1000    1029    1035    1013    1068    1108
    1074    1083    1179    1102    1208    1169    1247    1215    1231    1091
    1180    1144    1092    1086    1102    1140    1092    1102    1130    1134
    1123    1069    1045    1013    1029    1033    1020    1034    1022     999
     994     981     997     977     970     974    1000     989     950     963
     969     985     943     929     978     942     934     964    1062    1000
     950     968    1018     972     953     938    1016    1012     957     958
     935     972     972     951     923     930     957     982     970     988
     945     964     969     927     928     931     938     939     968     946
     978     973     911     945    1001    1008     980     957     965     950
     939     963     977     949     924     944     920     917     912     981
     995    1012     979     907     941     998     997     957     955     938
     965     937     989     949     978     929     943     915     959    1013
     922     919     947     937     946     928     981     986     936     935
     941     907     965     966     978     940     950     906     939     968
     943     958     973     956     958    1001     989     961     996     994
     968     988     967     960    1006     990     988     988    1004    1041
    1042    1036     972     965     923     988     961     973     970    1005
     923    1016    1002     981     972     955     987     908     961     915
     970    1025     971     983     963     903     966     980     983     979
     982    1026    1011     949     950     954     961     968     981     965
    1006    1044    1002     986     977     995    1027     968     963     980
     988     986    1005     992     973     992     974    1004     977     966
     983     959     949     936    1038    1014    1004    1009    1039    1011
     968    1025     995    1023    1028    1029    1103    1005    1049    1024
    1072    1108    1086    1164    1167    1218    1273    1361    1454    1560
    1767    1723    1777    1749    1735    1625    1618    1521    1484    1499
    1463    1418    1408    1452    1455    1478    1536    1552    1567    1515
    1402    1374    1322    1269    1282    1269    1188    1129    1118    1103
    1080    1077    1099    1066    1106    1053    1068    1069     981    1022
    1046    1031    1069    1021     966     973     998     986    1015    1013
    1010     935     951     974     998     972     966     931     983     954
     980     974     988     956     982     997    1008     986    1004    1037
    1032     989    1017    1018     962     994    1065    1096    1105    1097
    1190    1229    1217    1251    1303    1330    1291    1226    1231    1181
    1204    1171    1080    1157    1148    1159    1134    1128    1138    1152
    1150    1144    1162    1035    1007    1085    1059    1060    1006    1015
    1031    1014    1053     971     947     961     953     996    1006    1011
     973     959     987     994     960     988     985     944     956     957
     960     955     970     970     960     990     959     943     916     957
     921     909     950     959     971     991     926     929     964     929
     985     921     991     966     964    1009     989     934     977     943
     952     963     917     931     944    1049     978     940     963     991
     992    1002     993     954    1012     973     958     969     942     980
    1009    1000     971     964     969     986     992     981     966     969
     944     930     944     920     960     993     960     977     981     927
     925     934     991    1018     957     936     965     946     939     906
     980     933     938     965     965     940     994     944     975     894
     978     995    1009     975     950     984     973     959     960     991
     944     923     942     952     953     969     964    1001    1004    1018
    1033    1053    1025    1010    1039    1036    1020    1049    1065    1063
    1035    1052    1058    1017    1019    1060    1042    1008     936     965
    1004    1000    1043    1019     983    1012    1025     954     946    1032
     972     962     873     950     974     914     912     938     969     983
     935     934     934     918     953     929     985     998     983     965
     972     978     955     951     954     954     971     953     947     940
     938     955     975     961     964     945     949     980     958     953
     948     954     945     965     942     960     989     929     936     926
     922     939    1001     985     973     936     988    1012     944     975
     922    1004     942     942     948     960     979    1034     987     973
     941    1010    1008    1016    1003     976     975     993     975    1023
    1031    1011     989     996     999    1025    1013     992     987     973
    1003    1015    1032    1029     992     990    1008    1020    1003     973
     935     951     988     967     957     981     997     960     959     935
     953    1023     969     960     969     909     963     960     976    1014
    1025    1025     950     907     999     946     986     936     964     969
     979    1002     989     992     990    1023    1003    1037    1030    1018
    1026                                                                        
