Co 880                                                                          
BANK       1    4941     494   CONST  1600.0     1.7     0.0     0.0         STD
     725     708     711     689     675     690     743     736     738     701
     716     705     689     757     712     683     701     739     739     723
     684     693     745     731     705     707     691     687     686     692
     715     710     712     714     702     693     719     718     711     709
     688     685     739     718     699     751     735     733     675     747
     685     648     689     667     666     729     728     726     733     781
     752     742     695     687     702     712     700     700     703     679
     685     725     677     719     708     744     724     708     715     729
     705     714     728     712     712     712     738     723     737     731
     672     681     677     708     726     699     711     703     666     694
     676     738     738     707     745     715     749     789     746     695
     676     731     697     680     720     707     710     699     694     703
     718     716     696     708     695     717     672     719     727     708
     700     719     715     705     724     746     707     693     696     684
     708     732     718     708     699     702     725     728     714     707
     715     715     706     728     736     690     678     684     667     728
     697     685     685     693     698     696     721     678     651     686
     757     721     703     671     737     754     738     702     723     745
     710     690     727     691     691     775     691     708     714     707
     740     710     724     671     698     727     737     743     734     725
     698     691     705     699     708     733     710     676     704     686
     723     765     758     769     765     730     706     708     746     723
     736     730     736     705     786     749     791     766     845     771
     850     980    1074    1309    1510    1440    1331    1250    1084     999
     912     827     787     786     740     742     730     706     749     758
     726     735     721     726     737     731     735     703     693     709
     761     754     726     723     718     742     760     749     735     749
     782     765     731     742     744     711     710     762     714     729
     740     751     763     744     766     742     736     737     735     740
     790     746     738     734     719     736     768     745     729     734
     725     708     746     757     695     737     775     731     750     767
     765     729     679     727     761     712     705     714     716     737
     742     731     753     756     733     752     756     724     737     740
     724     715     749     763     721     765     778     719     758     759
     709     746     793     742     747     756     819     780     798     857
     930     950    1089    1261    1570    1985    2397    2684    2730    2509
    2246    1908    1531    1222    1067     937     884     834     795     794
     785     784     787     778     779     761     743     763     782     783
     747     728     751     744     743     758     774     775     800     802
     761     742     734     785     779     757     756     730     747     758
     764     723     736     743     793     686     745     742     769     698
     729     735     764     777     768     730     695     735     690     729
     729     715     723     765     774     774     769     781     759     748
     762     774     774     772     765     767     778     745     720     720
     721     728     732     742     767     787     775     762     754     795
     731     703     733     747     777     749     766     753     731     773
     735     740     762     819     718     776     803     707     776     766
     672     736     773     761     760     790     774     755     715     690
     759     782     752     748     744     749     724     764     751     744
     758     762     740     712     717     735     750     758     743     745
     767     740     728     781     778     765     798     744     753     717
     747     751     707     750     733     746     814     797     748     723
     781     746     781     801     759     739     762     789     757     796
     724     750     759     775     732     768     780     777     768     757
     795     749     746     752     736     738     712     726     757     770
     802     808     775     762     757     765     765     748     787     773
     750     762     727     741     758     768     739     729     735     783
     781     744     791     761     745     737     824     780     780     798
     786     719     813     724     772     743     720     805     784     759
     785     748     776     758     773     742     747     753     747     758
     732     744     773     767     805     799     770     762     780     762
     753     772     770     769     775     784     762     748     764     772
     760     774     758     782     733     771     759     795     762     757
     776     754     773     817     734     794     752     705     772     801
     747     779     792     765     746     766     772     752     758     801
     800     806     758     785     790     771     766     744     706     741
     759     761     802     805     787     772     779     795     775     788
     780     768     808     797     765     780     785     786     780     788
     796     776     828     781     797     811     806     832     808     762
     780     814     822     806     783     812     760     777     807     762
     802     723     781     810     765     814     792     814     782     805
     783     811     790     763     784     836     823     801     822     791
     784     769     749     789     795     804     786     789     794     802
     810     801     843     825     808     826     781     794     835     816
     837     778     786     857     779     799     800     819     810     848
     823     822     795     807     838     836     766     835     845     781
     724     832     819     800     809     810     805     823     828     864
     829     842     872     828     827     848     831     825     842     842
     829     833     860     849     809     820     846     828     830     889
     863     808     829     848     794     848     813     834     820     839
     811     871     792     845     845     799     797     837     859     821
     852     863     819     866     824     867     847     859     839     840
     851     831     876     825     860     866     873     868     821     838
     847     784     843     853     851     851     822     834     830     842
     826     807     819     844     854     858     820     817     836     829
     849     866     877     826     824     880     882     828     833     842
     848     844     827     824     878     812     895     876     859     822
     875     847     828     858     846     880     867     851     811     837
     841     870     888     898     905     956     872     839     864     885
     867     843     873     872     854     887     891     886     872     857
     846     859     865     850     872     854     831     834     874     923
     905     883     900     909     869     875     886     887     860     860
     926     927     874     930     926     915     876     878     929     932
     868     812     911     883     879     880     925     893     908     889
     858     856     870     883     910     917     908     879     923     916
     892     911     905     869     841     847     864     871     908     922
     893     924     940     898     871     881     877     924     900     886
     903     926     919     953     958     988     995     988     922    1000
     970    1063    1095    1195    1474    1722    2262    2641    2876    2648
    2319    2027    1768    1544    1401    1196    1128    1051    1059    1087
    1018     986     993     983     922     904     908     938     937     924
     946     941     901     899     939     948     980     988     961     985
     957     921     945     985     993     956     964     947     943     943
     938     966     927     961     958     983     970     970     929     961
     913     960     833     961     926     930     947     935     904     920
     980     921     886     918     919     894     898     927     920     938
     941     953     918     916     942     953     927     936     935     920
     924     925     910     941     988     960     941     936     931     934
     919     923     898     901     962     969     930     917     941     946
     920     928     879     921     890     884     913     970     907     981
     949     916     853     896     893     931     894     916     927     955
     924     942     932     896     945     935     950     934     950     920
     932     925     929     940     959     899     906     922     917     942
     945     897     898     916     942     953     918     927     947     927
     928     920     909     934     921     935     951     913     926     888
     891     934     926     929     964     964     944     908     930     913
     931     906     948     905     924     962     977     935     940     989
     925     999     989     948     973     968     972     963     985    1015
    1046    1074    1050    1078    1147    1206    1255    1331    1549    1916
    2575    3553    4663    5328    5326    4948    4588    4430    4132    3652
    2905    2269    1834    1551    1464    1232    1190    1085    1009    1035
    1025     967     972    1049     924     977     974     969     955     982
     930     909     902     954     968     914     912     997     928     918
     971     942     973     946     887     924     957     945     927     964
     966     928     893     906     914     920     931     964     962     939
     957     938     930     954     953     925     917     931     938     937
     913     938     929     955     940     961     945     945     932     965
     929     948     938     922     968     940     978     905     943     920
     946     954     896     951     934     915     968     967     906     974
     996     964     966     920     914     924     971    1003     999    1015
    1057    1070    1127    1273    1358    1393    1364    1324    1256    1165
    1186    1170    1145    1106    1101    1143    1104    1102    1115    1138
    1181    1209    1266    1404    1531    1718    2264    2942    3975    5265
    6190    6495    6290    5517    4641    3816    3153    2557    2080    1784
    1573    1457    1359    1326    1291    1214    1160    1136    1132    1089
    1058    1093    1059    1086    1069    1069    1054    1033    1064    1066
    1071    1082    1074    1065    1043    1027    1043    1024    1051    1030
    1023    1070    1051    1007    1047    1057    1036    1018    1015     999
    1019     984     988    1015    1023     983    1056    1048    1002    1000
     978    1059    1025     994    1023     977     932     993    1018     993
    1009    1041    1013    1019    1044     986    1004    1031    1045    1013
     979     983    1011    1015     992    1026    1041    1012    1013    1013
    1011    1002    1006    1022    1015     997    1003    1012    1027    1044
    1043    1042    1098    1118    1265    1247    1202    1281    1241    1173
    1192    1034    1063    1061    1012    1022    1013    1060    1010    1076
    1015     966    1000     965    1004    1032    1061    1050    1007    1016
     989    1009    1024    1022     979    1007    1018     959    1019    1035
    1022    1002    1002     990     994    1005    1016    1008    1004    1019
    1023    1019    1008    1005    1019    1008    1042    1030     997     967
     959    1008    1014     976    1043    1064    1016     998    1058    1027
     968     979     933     988     993    1020    1027     998    1025    1023
    1002    1036    1040    1016     980    1014    1024    1017    1004     988
    1021    1012     960    1014     993    1005    1013     992     989     994
     988     998    1030    1009     994    1035    1052    1046    1042    1006
    1068    1054    1117    1278    1399    1631    1932    2001    1934    1860
    1713    1752    1718    1673    1503    1417    1250    1231    1234    1168
    1265    1267    1268    1395    1379    1451    1647    1587    1838    2097
    2552    3333    4728    6994   10094   13110   14574   14506   13437   12210
   11512   11197   10110    8401    6627    5252    4093    3245    2557    2013
    1701    1562    1472    1378    1295    1210    1188    1190    1162    1107
    1095    1064    1029    1060    1044    1057    1032    1036    1026    1073
    1025    1045    1027    1013    1009    1034    1017     975    1021    1060
    1053     968    1013    1039     985    1005    1010    1012     990    1009
    1009     969     952     969     991     980     946     984    1011    1000
     998     947     987    1019     994     971     964     987    1005    1006
     996    1013    1018    1022    1031    1002    1009    1036    1059    1029
    1022    1068    1127    1211    1305    1489    1727    1750    1774    1777
    1542    1465    1343    1315    1154    1130    1134    1016    1085    1095
    1062    1101    1093    1043    1116    1101    1002    1130    1182    1187
    1328    1576    1817    1970    1917    1830    1822    1767    1702    1632
    1560    1446    1349    1244    1178    1118    1060    1070    1060    1037
     994     985     993    1020    1016     979     984     998     991     995
    1015     995     984     985    1017     995    1028     993     997     999
    1012     942     990     973    1010     976     959    1012     978     953
    1008     966    1005     964     986    1017     968     962     969     990
     993     981     957     964     965     971     957     986    1005    1003
    1022    1027     933     928     957     955     977     975     968     954
     998     980     948     982     974     991     957     977     960     967
     960     964     945     963     942     961     968     932     968     973
     954     995     921    1047     994    1008     999     967    1062    1009
     967     972     983    1037     992    1038    1070     984    1018     984
     974     995    1013    1080    1108    1123    1216    1375    1530    1730
    1951    2169    2229    2196    2050    1869    1703    1578    1495    1364
    1272    1186    1152    1132    1050    1044    1067    1058    1019    1018
     994    1060     961    1018     984    1005    1011    1021     955    1042
     990     958     954     979     922    1039     937     977     923     978
     933     956    1018    1006     987     991     971     955     925     944
     943     972     979     964     932     960     942     978     977     941
     955     949     951     970     939     958     974     998     977     984
     975     968    1004    1008    1010     987     935     959     986     924
    1027     994     923     946     925     976     964     944    1003     866
     959     953     970     981    1031     959     939     978     965     923
     939     978     976     935     939     946     919     943     935     978
     966     962     955     980     968     954     951     980    1013     999
     980     988     983     987    1011    1015    1027    1061    1130    1231
    1462    1764    2097    2401    2378    2223    1994    1971    1941    1987
    1868    1751    1565    1424    1301    1198    1151    1112    1024    1066
    1013    1035    1003     995     968     958     965     962     963     887
     941     957     970     985     979     901     922     963     968     960
    1005    1000     969     949     949     978     987     971     988     996
     993     950     952     935     924     967     991    1004     957     951
     952     980     949     949     951     993     997     928     954     924
     927     911     945     948     883     952     911     947     968     944
     965     939     893    1012     951     949     967     992     983     951
     885     928     933     945     962     947     935     939     972     933
     933     941     935     932     906     923     938     938     935     945
     953     954     968     957     909     897     920     949     936     994
     960     955     948     984     984     957     982     944     931     947
     971     923     966     944     886     963     967     932     972     978
    1024     994     968     996     986     958    1019     985     962     982
    1006    1017     990     977     971     984    1015    1034    1011     985
    1022    1049    1027    1046    1062    1079    1094    1083    1139    1229
    1306    1413    1552    1849    2249    2735    3208    3367    3379    3249
    3020    2851    2763    2792    2687    2390    2212    1999    1761    1593
    1427    1282    1179    1176    1090    1111    1070    1074    1099    1034
    1075    1068    1022    1009    1022     988     969    1020     979     943
    1016     983     930     981    1016     974     966     985     999     980
     984     965     943     980     967     975     970     967     957     959
     987     955     991    1020     989    1018    1002     947     974     991
    1005     956     943    1001     971     980    1016     953     931     970
    1008     964     955     995     985     991    1036     954     987    1009
     975     936     998     977     996     947     977     973     973     981
     985    1011    1019    1066    1005     952     999    1013     984     985
     991     981     977    1003    1003    1014     982     960     929     991
    1030    1030    1013     972     951     951     983    1029     962    1045
     966    1005    1015    1012     985     969     953     995    1014     945
     998    1008    1037    1047     999    1002     989     992     983     993
     988     973    1006     952     952     979     947     923     929     975
     977     994     959     949    1006    1024    1009     956     969     957
     945     994    1007     993    1016    1031    1014     969     960     973
     979     977     989    1006     987     942     997     922     940     936
    1008    1002     963     978     949    1005    1010     970    1007    1018
     962     981     966     993     961    1009    1007     993     971     975
     981     960     984     947     982     988     957     939     950     960
     946     982     964     955     975     969     966     925     956     943
     966     968     954     974    1001     969     923     964     967     970
     957     955     962     960     958     965     994     999     930     988
     979     958     966     984     904     919     967     979     991    1000
     939     982     920     926     935     963     953     976     965     973
     961     939     965     967     983     986     945     974     981     997
    1025    1002     968     946     932     940     977     982     966     960
     956     972     980     977     960     986     918     938     948     973
     966     974     941     967    1014     970     944     996     989     948
     975    1034     958     963     982     962     925     986     971     984
     907     928     938     948     978     985     989     952     962     962
     986     954     948     951     951     943     968     975     964    1006
    1009     974     970     984     972     977     941     916     927     957
     963     941     946     937     965     962     974     946     966     942
     956     939     963     962     956    1043    1022    1030    1055    1076
    1235    1191    1246    1323    1237    1238    1187    1147    1147    1050
    1062    1004    1006    1011    1008     987     992     929     905     942
     982     977     999    1010     999     951     954     954     956     963
     940     950     955     948     954     935     956     967     993    1016
     962     946     989     942     945     960    1009     946     921     936
     937     943     918     970     963     944     957     976     980     992
    1008     927     953     946     973     959     965     949     939     961
     955     953     947     998     949     972     988     954     928     940
     933     942     956     952     947     926     943     993     975     950
     948     962     963     951     934     988     988     971     963     956
     960     918     964     991     959     971     965     935     960    1013
     972    1027     994     983     928     913     949     978     907     975
     964     952    1012     959     996     954     935     963     946     940
    1012     968     952     979     953     953     958     961     949     944
     959     946     968    1017     975     946     931     926     931     961
     954     959     968     973     986     981     989     957     917     894
     961     946     945     986     976     995     978     890     956    1020
     975     929     979     954    1001     982     992     951     936    1003
     982     944     939     983     952     959     936     940     966     994
     959     930     987     976     953     943     938     989    1016     989
     964     973     996    1014     994     969     987     989    1000     989
     996     987     958     981    1030    1023    1021    1028    1039    1038
     989     983    1058    1113    1183    1199    1269    1378    1644    1790
    2009    2191    2248    2122    2083    1931    1816    1678    1540    1446
    1370    1291    1258    1193    1135    1155    1082    1064    1043    1071
    1071    1021     999    1014    1035     979     950     982    1009    1000
    1005    1007    1002    1013    1002    1006     983     981     993    1006
     967    1014    1033    1003     922     932     955     951    1003    1033
     966    1058     997    1018    1002     950     997     961    1039     994
    1022     962     914    1041     999     978     974    1031     989     958
     951     925     975    1021    1031    1021     969     985    1001    1042
    1005     979     932     946     992     980     953     947     988    1027
    1003     971     941     986     980     966    1010     966     935     963
     970     972     958     960     997     976     979     975     980     973
    1006     970     963    1006     989     952     947     960     993    1007
    1004    1000    1016    1047    1131    1204    1317    1322    1311    1307
    1278    1244    1183    1117    1078    1096    1072    1055    1053    1029
    1019    1031    1011    1025    1017     988     973     978    1011    1032
    1017     983     995    1047    1025     951     997    1003    1035    1036
    1051    1064    1150    1174    1286    1422    1578    1731    1845    1779
    1625    1543    1430    1492    1419    1379    1450    1449    1382    1277
    1313    1232    1138    1143    1065    1053    1012     995     978    1023
     977     972    1029    1007     953     957    1035     966     955     957
     953     965     968     957     967     982     969     956     955     966
     942     898     913     986    1004     994     960     994     943     951
     963     974     973     938     982     964     927    1039     995     968
     965     969     973     974     922    1019     932     973     964     997
     987    1004     925     980    1021     979     985     973     969     966
     973     961    1022    1046     973     943     989     984     983     997
    1004     997     968     955     997     974     967     970    1002     991
    1008     955     951    1003    1011    1018     989    1024    1011    1001
    1056    1022     994    1019    1024    1024    1008     929     982     960
     991     951     967     971     996     958     958    1028    1009     987
     954    1003     975     980     973     948     954     967     974     977
     975     949     992     987     970     985    1027     995    1005    1022
     981     946     963    1024    1013     984    1000     999     996     953
     974     993     975     954    1030     991    1030     984    1006     956
    1010    1031    1010    1012     974     959    1007     963    1030    1059
    1016    1019    1047    1086    1071    1019    1079    1115    1153    1146
    1160    1256    1402    1538    1730    2026    2258    2379    2407    2304
    2145    2082    1956    1726    1576    1495    1430    1363    1314    1257
    1203    1131    1140    1101    1052    1069    1096    1088    1095    1050
    1026    1066    1046    1024     982    1026     987    1007    1042    1045
    1066     981    1009    1026    1043    1011    1066    1096    1035    1070
    1021    1082    1122    1117    1109    1095    1112    1135    1141    1127
    1206    1237    1291    1379    1465    1677    1975    2328    2904    3524
    4033    4243    4157    3994    3611    3210    2951    2746    2744    2831
    2823    2771    2655    2511    2333    2083    1823    1635    1526    1380
    1270    1234    1152    1128    1068    1085    1053    1028    1039    1060
    1029    1069    1020    1021    1018    1023    1047     987     980    1058
    1019    1008    1038    1030    1038     985     990     945     999     960
     968     963     989     966     981    1000     980     946     971     987
     984     967     984     989     982     981    1015     988     970     958
     946     960     989     995     971     994     992     994    1013     953
     968    1004     987     951     969     984     941     977     930    1021
     947    1000     970    1012     959     937     957     959    1003     998
     994     962    1040    1006     971     964     968     944     958    1002
     978     955     981    1006    1029    1010    1027    1023     978     978
     996     978     997    1015    1033    1055    1033     983    1008    1021
     996     998     988     995     987    1012    1008    1042     990    1015
    1024    1098    1116    1261    1479    1620    1687    1725    1617    1389
    1517    1344    1294    1329    1307    1364    1333    1355    1318    1206
    1195    1190    1124    1101    1062    1032    1000    1032    1035    1008
    1007    1014    1034    1009     994    1022    1020     976     975     960
     975     995     997     988     973     999    1003     956     952    1000
     963     980     979    1016    1005    1008     943     985     969     965
     912     972     952     952     980     919    1006    1009     951     965
     992     975    1001     921     968     992     944    1002     951     974
     988     965     937     982     982     974     976     993     950     974
    1010     960     941     975     978     984     951     928     978    1005
     979     965     948     961     981     988     968     978     946     955
    1030    1004     954     921     930     923     935    1000    1009     962
     983     921     934     943     959     942     962     965     914     940
     974     907     945     968     990     969     955     968     994     992
     991     980     992     962     925     929     974     985    1007     989
     984     983     969     975    1013    1004     978     955     960     946
     967     967     938     967     975     968     974    1014     988     942
     975     962    1034     986    1005    1032    1001     937     927     944
    1015     932     984     995     935     974     966    1012     982    1017
     958    1011     940     967     961     974     961     965     962     946
     966    1012     985     953     923     953     973     959     963     985
     998     983     961     958     941     937     981     970     982     986
     972     962     971     939     955     989     986     921     933     964
     962     959     953    1006    1000     999    1004     962     995     958
     989    1003     984     972     971    1011     915     988    1039     982
     977     963     984    1019    1006    1035    1028     988    1003    1044
    1036     998    1000    1010    1059    1018    1045    1088    1062    1084
    1095    1100    1144    1178    1176    1211    1309    1439    1585    1941
    2288    2763    3501    4002    4233    4155    3896    3550    3206    2853
    2539    2361    2394    2482    2676    2876    2687    2522    2400    2229
    1872    1811    1645    1378    1259    1238    1203    1121    1107    1078
    1052    1063    1064    1100    1101    1092    1107    1111    1099    1073
    1063    1027    1001     974     975     992    1014     998    1005    1001
    1002    1008     982     980    1018    1028     992     962     920     982
     990     983     983    1013     986    1012     991    1005    1007    1010
    1023    1035    1025    1028    1044    1086    1025    1045    1034     956
    1002     952     995    1003     997    1026    1027     990     973     988
     968     992     965     986     988     995     971     977     977     961
     951     967     988     979     964     959     960     990    1016     990
     953     951     954     922     939     920     962     984     954     959
     997     946     960     934    1016     999     992     944     987     989
     897     961     932    1009     954     977    1004     974    1010     943
    1023     963     948     939     965     980     961     972    1008    1014
     982     913     919    1003     996    1011     997     967     969     962
     959     951     964     978     978     941     934     958     946     977
     983     938     947     940     971    1027     967     969     951     931
     948     985     962     953     965     969    1004     950     967     962
     893     940     945     966     959     970     967     941     963     936
     948     950     937     956     956     959     939     979     978     955
     966     952     976     960     943     956     941     936     974     953
     937     949     940     969     968     983    1006     975    1007     998
     955     969     979     972    1016    1032     951     983     951     981
     950     995     929    1002    1002     954     991    1014    1064    1110
    1132    1125    1064    1113    1103    1111    1055    1058    1051    1006
    1033    1062    1038    1053    1085    1032    1029    1077    1049    1029
    1049    1058    1103    1110    1150    1171    1212    1269    1251    1207
    1190    1157    1117    1109    1089    1073    1054    1052    1053    1029
    1011     956     951    1001    1008     961     960     952     974     973
     942     985     968     981     955     957    1007     928     891     896
     897     932     925     982     984     942     982    1030     961     963
     983     943     940     961     996     971     965     973    1000     982
     980     995     962     994    1008     988    1027    1014     982    1004
    1021    1071    1083    1063    1056    1036    1023     979    1040    1030
     998    1000    1017    1021    1013     961     966     967     982     976
     993     961     937     983     979     972     952     990     949     925
     958     985     966     951     968     970     963     940     931     999
     964     977    1005     988    1016     972     965     991     974     976
     941     927     943     959     955    1007     996     948     973     994
    1001     977     987     960     961    1002    1020     975     969     959
     976    1012    1019     970     973     929     917     968     958     952
     956     998     959     987     975     989     944     979     977     953
     979     997     952     977     969     979     944     944     921     958
     965     949     969     963    1013     981     972     968     990     986
     987     960     947     960    1004    1007     985     979     969     964
     977     937     927     935     958     973     980     944     934     969
     964     948     933     966     977     991     942     953     942    1016
     931     961     946     896     929     955     917     951     948     889
     936    1001     987     947     960     949     952     960     963     972
     908     911     952     954     976     920     928     971     966     953
     937     942     962     953     974     961     945     969     954     932
     960     954     950     946     917     968     940     935     982     960
     959     923     920     901     945     931     937     968     949     984
     979     984     992     964     967     960     923     971     974     920
     940     984     967    1033     957     913     924     904     977     961
     938     949     951     965     976     929     915     954     944     905
     914    1000     989     943     958     977     965     953     957     967
     966     940     987     956     921     974     948     955     947     956
    1022     992     940     969    1017     981     960     937     986     919
    1038     985    1006    1024     978    1017     976    1018    1014    1100
    1148    1168    1180    1257    1251    1252    1236    1184    1144    1083
    1026    1042    1054    1053    1030    1051    1076    1085    1101    1094
    1040    1014    1015    1024    1000     965     965     992     971     995
     978     960     897     956     986     991     919     974     953     970
    1037    1048    1038     997    1014    1143    1139    1147    1181    1139
    1194    1176    1154    1108    1134    1055    1030    1055    1089    1043
     982    1022    1076    1100    1068    1071    1057    1014    1014    1014
     998     964     985    1008     996     956     946     983     945     947
     979     990     952     959     978     985    1005     978     982     956
     960     990     977     959     982     943     996     976     964     930
     967     953     973     908     963     933     993     948     958     953
     966     986     956     912     913     956     946     936     986     995
     946     935     964     976    1006     994     957     964     965     968
     955     940     948     957     944     919     969     992     941     965
     958     941     940     941     963     950     961     921     967     952
     917     949     979     934     920     962     946     976    1014     979
     974     948     957     956     949     983     959     932     930     941
    1047     987     949     984     980     953     963     980    1003     951
     939     954     963     982     954     980     985     967    1018    1002
     948     977     952     982    1027     996     983     986     970     984
     982     998     976     970     982    1032     965     975    1035     999
     984     998     940     997     996     887     958     927     974     957
     930     989     943     950     969     997     975     977     944     966
     959     940     972    1004     966     947     925     961     997     999
     960     944     968     955     983     985     970     948     980     978
     937     948     980     994     962     970     980     984     958     956
     993     947    1002    1018     969    1004     967     952     975    1008
    1000     985    1044    1015    1016     999     969    1043     984     994
    1071    1044    1021    1028    1080    1153    1277    1339    1468    1566
    1639    1718    1750    1792    1708    1653    1529    1427    1346    1275
    1286    1277    1240    1279    1308    1360    1393    1366    1376    1332
    1299    1257    1208    1152    1136    1100    1105    1054    1006     985
     980     948     984     964    1024     987    1006    1022    1009    1010
    1082    1020     957     998    1006     964    1003     991    1018     978
     997     968    1019     971     987    1002     971     974     996     983
     948     983     998     999    1015     986     968     976     980     984
     999    1007    1049    1060    1047    1076    1076    1101    1145    1167
    1251    1306    1324    1299    1277    1233    1227    1209    1126    1113
    1140    1073    1049    1110    1134    1096    1145    1110    1169    1104
    1095    1083    1099    1003    1014     999    1021    1063    1036     977
     956     980     970     974     972     944     940     975     980     944
     922     958    1009     972     934     953     970     953     954    1004
     976     936     943     994     976     918     924     961     930     914
     933     937     935     917     968     990     971     968     962     965
     976     943     973     946     928     926     964     994     962     902
    1017     933     979     921     921     966     906     977     913     981
     983     952     976     955     955     944     959     970     940     958
     958     934     892     976    1005     940     949     977     956     957
     949     942     943     960     935     898     957     985     974     926
     941     970     909     939     969     937     970     955     961     942
     937     921     953     977     975     901     922     979     980     979
     989     908     944     950    1017    1026     959     944     956     958
     987     960     943     965     943     949     963     978    1002     976
    1013    1040    1034    1011    1006    1004    1010    1021    1019     984
     972     970     957     959     991     994     952     941     963     952
     953     980     969     959     908     954     956    1004     965     965
     989    1019     923     984     900     931     966     931     963     928
     933     950     946     925     980     970     893     941     952     947
     942     922     964     951     944     967     953     953     954     951
     969     908     909     989     992     968     967     969     942     926
     925     963     953     952     979     989     940     911     949     953
     971     975    1007     987     951     955    1006     938     964     988
     963     968    1008     997    1001     997     962     943     958    1052
     954    1009     984     960     949     937     980     990     954     939
     965     967     990     993     937     944     936     943    1000     977
     970     951     931     958     984     980     941     945     970     963
     995    1039    1001     982    1002     995     944     945     951    1001
    1005     978     979     953     932     985     955     970     916     949
     970     964     987    1006    1037    1046     959     932     974     968
    1035    1046    1054    1062    1081    1172    1105    1117    1165    1141
    1136    1113    1149    1104    1043    1045    1010    1055    1071    1014
    1020    1047    1060    1076    1058    1048    1105    1101    1066    1050
    1038    1022    1018    1049    1059    1038    1076    1062    1105    1112
    1160    1213    1201    1267    1175    1201    1194    1091    1116    1079
    1056    1082    1043    1052    1070    1056    1047    1015    1044    1002
    1041    1021    1007     963     985    1084    1072    1025     978     977
     985                                                                        
